38,0,0,1856723231
36,0,0,10023
36,0,0,10023
36,0,0,10023
36,0,0,10023
36,0,0,10023
36,0,0,10023
34,0,0,19998
34,0,0,19998
34,0,0,19998
34,0,0,19998
34,0,0,19998
34,0,0,19998
34,0,0,19998
32,0,0,29998
32,0,0,29998
32,0,0,29998
32,0,0,29998
32,0,0,29998
32,0,0,29998
32,0,0,39998
32,0,0,39998
32,0,0,39998
32,0,0,39998
32,0,0,39998
32,0,0,39998
32,0,0,39998
32,0,0,49997
32,0,0,49997
34,0,0,49997
34,0,0,49997
34,0,0,49997
34,0,0,49997
34,0,0,49997
36,0,0,59998
36,0,0,59998
36,0,0,59998
36,0,0,59998
36,0,0,59998
36,0,0,59998
36,0,0,69998
36,0,0,69998
36,0,0,69998
36,0,0,69998
36,0,0,69998
36,0,0,69998
36,0,0,69998
36,0,0,79999
36,0,0,79999
36,0,0,79999
36,0,0,79999
36,0,0,79999
36,0,0,79999
36,0,0,79999
38,0,0,89997
38,0,0,89997
38,0,0,89997
38,0,0,89997
38,0,0,89997
38,0,0,89997
38,0,0,99997
40,0,0,100929
40,0,0,102923
40,0,0,103919
40,0,0,104916
40,0,0,104916
40,0,0,105912
40,0,0,106911
40,0,0,107909
40,0,0,108906
40,0,0,109903
40,0,0,110900
40,0,0,111914
40,0,0,112895
40,0,0,112895
40,0,0,113892
40,0,0,114890
40,0,0,115888
40,0,0,117893
40,0,0,118881
38,0,0,120874
38,0,0,121876
38,0,0,123866
38,0,0,124862
38,0,0,126868
36,0,0,127855
36,0,0,129849
36,0,0,130846
36,0,0,132841
34,0,0,133840
34,0,0,135834
34,0,0,136830
34,0,0,138825
34,0,0,139822
34,0,0,141851
34,0,0,142814
36,0,0,144827
36,0,0,145808
34,0,0,147802
36,0,0,148798
34,0,0,150794
34,0,0,151799
34,0,0,153784
34,0,0,154783
34,0,0,156777
34,0,0,157775
34,0,0,159071
34,0,0,160702
34,0,0,162697
34,0,0,163692
36,0,0,165690
34,0,0,166689
36,0,0,168681
36,0,0,169678
36,0,0,171672
36,0,0,172670
36,0,0,174670
36,0,0,175662
36,0,0,177666
38,0,0,178653
38,0,0,180648
38,0,0,181646
40,0,0,191983
40,0,0,191983
40,0,0,191983
40,0,0,191983
40,0,0,191983
40,0,0,191983
40,0,0,201947
43,0,0,201947
43,0,0,201947
43,0,0,201947
43,0,0,201947
40,0,0,201947
43,0,0,201947
43,0,0,211945
40,0,0,211945
40,0,0,211945
40,0,0,211945
40,0,0,211945
40,0,0,211945
40,0,0,211945
40,0,0,221947
40,0,0,221947
40,0,0,221947
40,0,0,221947
40,0,0,221947
40,0,0,221947
36,0,0,231945
36,0,0,231945
36,0,0,231945
36,0,0,231945
34,0,0,231945
34,0,0,231945
34,0,0,231945
34,0,0,241945
32,0,0,241945
34,0,0,241945
32,0,0,241945
32,0,0,241945
32,0,0,241945
32,0,0,241945
30,0,0,251978
30,0,0,251978
28,0,0,251978
28,0,0,251978
28,0,0,251978
28,0,0,251978
28,0,0,261978
26,0,0,263535
26,0,0,263662
26,0,0,264666
26,0,0,265657
26,0,0,266656
26,0,0,267655
26,0,0,268653
26,0,0,269649
26,0,0,270645
24,0,0,271643
26,0,0,272639
24,0,0,273637
24,0,0,274635
24,0,0,274635
26,0,0,275632
24,0,0,276630
24,0,0,277627
24,0,0,279629
24,0,0,280620
24,0,0,282613
24,0,0,283863
24,0,0,285886
24,0,0,286862
24,0,0,288856
24,0,0,289855
24,0,0,291848
24,0,0,292846
24,0,0,294841
22,0,0,295838
22,0,0,297832
22,0,0,298830
24,0,0,300840
22,0,0,301826
22,0,0,303816
22,0,0,304814
22,0,0,306809
22,0,0,307805
22,0,0,309800
22,0,0,310798
22,0,0,312792
22,0,0,313790
22,0,0,315785
22,0,0,316812
22,0,0,318814
22,0,0,319807
22,0,0,321802
24,0,0,322799
24,0,0,324793
24,0,0,325791
24,0,0,327786
24,0,0,328782
24,0,0,330787
24,0,0,331784
24,0,0,333770
24,0,0,334769
24,0,0,336762
24,0,0,337759
24,0,0,339754
24,0,0,340751
24,0,0,342745
24,0,0,343743
24,0,0,345738
24,0,0,346739
24,0,0,348729
24,0,0,349727
22,0,0,351722
22,0,0,352719
22,0,0,354713
22,0,0,355749
22,0,0,357733
22,0,0,359052
24,0,0,360720
24,0,0,361687
24,0,0,363680
24,0,0,364682
24,0,0,366673
24,0,0,367675
24,0,0,369665
24,0,0,370664
24,0,0,372695
24,0,0,373666
24,0,0,375650
22,0,0,376648
24,0,0,378642
24,0,0,379639
24,0,0,381646
24,0,0,382631
24,0,0,384627
24,0,0,385625
24,0,0,387618
26,0,0,388614
28,0,0,399814
28,0,0,399814
28,0,0,399814
26,0,0,399814
28,0,0,399814
28,0,0,399814
28,0,0,399814
28,0,0,409779
28,0,0,409779
28,0,0,409779
28,0,0,409779
28,0,0,409779
30,0,0,409779
30,0,0,409779
28,0,0,419780
30,0,0,419780
28,0,0,419780
28,0,0,419780
30,0,0,419780
30,0,0,419780
30,0,0,429811
30,0,0,429811
28,0,0,429811
28,0,0,429811
28,0,0,429811
28,0,0,429811
28,0,0,429811
28,0,0,439779
28,0,0,439779
28,0,0,439779
28,0,0,439779
28,0,0,439779
28,0,0,439779
26,0,0,439779
26,0,0,449779
26,0,0,449779
26,0,0,449779
24,0,0,449779
24,0,0,449779
24,0,0,449779
24,0,0,459812
24,0,0,459812
24,0,0,459812
24,0,0,459812
24,0,-36,459812
26,0,0,459812
26,0,0,459812
26,0,0,469780
26,0,0,469780
26,0,0,469780
26,0,0,469780
26,0,0,469780
26,0,0,469780
26,0,0,469780
26,0,0,479778
26,0,0,479778
26,0,0,479778
26,0,0,479778
26,0,0,479778
26,0,0,479778
26,0,0,489813
24,0,0,489813
26,0,0,489813
26,0,0,489813
26,0,0,489813
26,0,0,489813
26,0,0,489813
26,0,0,499779
26,0,0,499779
24,0,0,499779
24,0,0,499779
24,0,0,499779
24,0,0,499779
24,0,0,499779
24,0,0,509779
22,0,0,509779
22,0,0,509779
22,0,0,509779
22,0,0,509779
22,0,0,509779
20,0,0,519822
20,0,0,519822
20,0,0,519822
20,0,0,519822
18,0,0,519822
18,0,0,519822
18,0,0,519822
18,0,0,529779
18,0,0,529779
16,0,0,529779
16,0,0,529779
16,0,0,529779
16,0,0,529779
16,0,0,529779
16,0,0,539779
14,0,0,539779
16,0,0,539779
16,0,0,539779
16,0,0,539779
14,0,0,539779
16,0,0,549811
16,0,0,549811
14,0,0,549811
14,0,0,549811
14,0,0,549811
14,0,0,549811
14,0,0,549811
14,0,0,559779
14,0,0,559779
14,0,0,559779
14,0,0,559779
14,0,0,559779
16,0,0,559779
14,0,0,559779
14,0,0,569779
14,0,0,569779
14,0,0,569779
14,0,0,569779
14,0,0,569779
14,0,0,569779
16,0,0,579817
16,0,0,579817
16,0,0,579817
18,0,0,579817
18,0,0,579817
18,0,0,579817
18,0,0,579817
18,0,0,589778
18,0,0,589778
18,0,0,589778
18,0,0,589778
18,0,0,589778
18,0,0,589778
18,0,0,589778
22,0,0,599779
22,0,0,600020
22,0,0,601025
22,0,0,603011
22,0,0,604009
22,0,0,605006
22,0,0,606004
22,0,0,606004
22,0,0,607002
24,0,0,608543
24,0,0,608788
24,0,0,609783
24,0,0,610783
24,0,0,610783
24,0,0,612777
24,0,0,613775
24,0,0,615770
24,0,0,616768
22,0,0,618762
22,0,0,619758
22,0,0,621753
22,0,0,622751
22,0,0,624745
22,0,0,625742
22,0,0,627736
22,0,0,628736
22,0,0,630730
22,0,0,631726
22,0,0,633723
22,0,0,634726
22,0,0,636727
22,0,0,637710
22,0,0,639704
22,0,0,640703
24,0,0,642698
24,0,0,643695
24,0,0,645689
24,0,0,646685
24,0,0,648682
24,0,0,649679
24,0,0,651676
24,0,0,652671
24,0,0,654666
24,0,0,655663
22,0,0,657657
22,0,0,658654
22,0,0,660648
22,0,0,661646
22,0,0,663641
22,0,0,664639
24,0,0,666634
22,0,0,667637
24,0,0,669641
24,0,0,670642
24,0,0,672282
24,0,0,674319
24,0,0,675316
24,0,0,677311
24,0,0,678309
24,0,0,680304
24,0,0,690475
24,0,0,690475
24,0,0,690475
24,0,0,690475
24,0,0,690475
26,0,0,690475
26,0,0,690475
26,0,0,700444
26,0,0,700444
26,0,0,700444
26,0,0,700444
26,0,0,700444
26,0,0,700444
28,0,0,710474
28,0,0,710474
28,0,0,710474
28,0,0,710474
28,0,0,710474
28,0,0,710474
28,0,0,710474
28,0,0,720444
30,0,0,720444
30,0,0,720444
30,0,0,720444
30,0,0,720444
30,0,0,720444
30,0,0,720444
32,0,0,730442
32,0,0,730442
32,0,0,730442
32,0,0,730442
34,0,0,730442
34,0,0,730442
34,0,0,740443
34,0,0,740443
36,0,0,740443
36,0,0,740443
36,0,0,740443
36,0,0,740443
36,0,0,740443
36,0,0,750444
36,0,0,750444
36,0,0,750444
36,0,0,750444
36,0,0,750444
36,0,0,750444
36,0,0,750444
38,0,0,760443
38,0,0,761705
38,0,0,762706
38,0,0,763703
40,0,0,763703
40,0,0,764700
40,0,0,765697
40,0,0,766695
40,0,0,767711
43,0,0,768695
43,0,0,769687
43,0,0,770684
43,0,0,770684
43,0,0,771681
43,0,0,772678
45,0,0,774674
45,0,0,775682
45,0,0,777665
45,0,0,778672
47,0,0,780657
47,0,0,781548
49,0,0,783581
49,0,0,784546
51,0,0,786537
51,0,0,787535
53,0,0,789529
53,0,0,790525
53,0,0,792521
53,0,0,793518
55,0,0,795513
55,0,0,796511
57,0,0,798505
59,0,0,799502
61,0,0,801498
61,0,0,803492
61,0,0,804489
63,0,0,806483
63,0,0,807480
65,0,0,809474
65,0,0,810472
65,0,0,812468
67,0,0,813465
67,0,0,815462
69,0,0,816457
69,0,0,818453
71,0,0,819449
73,0,0,821442
73,0,0,822440
75,0,0,824475
77,0,0,825433
77,0,0,827430
79,0,0,828425
81,0,0,830419
81,0,0,831417
83,0,0,833475
83,0,0,834672
86,0,0,835814
86,0,0,837250
90,0,0,839246
90,0,0,840243
92,0,0,842251
92,0,0,843236
94,0,0,845231
96,0,0,846227
98,0,0,848221
98,0,0,849218
100,0,0,851221
102,0,0,852213
102,0,0,854205
102,0,0,855203
104,0,0,857197
104,0,0,858194
106,0,0,860189
108,0,0,861186
108,0,0,863181
110,0,0,864179
110,0,0,866174
112,0,0,867174
114,0,0,869177
114,0,0,870170
116,0,0,872157
116,0,0,873154
118,2,0,875157
118,2,0,876147
120,2,0,878158
120,2,0,879140
122,2,0,881133
122,0,0,882131
124,2,0,884126
124,2,0,885123
126,2,0,887117
126,2,0,888115
129,2,0,890109
139,4,0,900438
139,4,0,900438
139,4,0,900438
141,4,0,900438
141,4,0,900438
141,6,0,900438
141,6,0,900438
143,6,0,910406
143,6,0,910406
145,6,0,910406
145,6,0,910406
145,6,0,910406
145,6,0,910406
149,8,0,920407
149,10,0,920407
149,10,0,920407
151,10,0,920407
151,10,0,920407
153,10,0,920407
153,12,0,920407
157,12,0,930406
157,12,0,930406
157,10,0,930406
159,12,0,930406
159,12,0,930406
159,12,0,930406
161,12,0,930406
161,14,0,940406
163,14,0,940406
165,14,0,940406
165,16,0,940406
165,16,0,940406
165,16,0,940406
169,16,0,950441
172,16,0,950441
174,18,0,950441
176,18,0,950441
176,18,0,950441
176,18,0,950441
178,20,0,950441
180,18,0,960406
182,20,0,960406
182,20,0,960406
184,20,0,960406
184,20,0,960406
186,22,0,960406
186,22,0,960406
188,22,0,970407
190,22,0,970407
190,22,0,970407
190,22,0,970407
190,24,0,970407
190,22,0,970407
192,22,0,980440
194,22,0,980440
194,22,0,980440
194,22,0,980440
196,22,0,980440
196,22,0,980440
196,22,0,980440
198,24,0,990406
198,24,0,990406
200,24,0,990406
200,24,0,990406
200,24,0,990406
200,24,0,990406
202,24,0,990406
204,24,0,1000406
206,24,0,1000406
206,24,0,1000406
208,24,0,1000406
208,24,0,1000406
208,24,0,1000406
210,24,0,1010406
212,24,0,1010406
212,22,0,1010406
212,22,0,1010406
212,22,0,1010406
212,22,0,1010406
212,22,0,1010406
212,20,0,1020407
212,22,0,1020407
212,22,0,1020407
212,22,0,1020407
212,22,0,1020407
212,20,0,1020407
212,20,0,1020407
210,20,0,1030447
208,20,0,1030447
208,20,0,1030447
208,20,0,1030447
206,20,0,1030447
206,20,0,1030447
204,18,0,1040406
202,18,0,1040406
200,18,0,1040406
198,18,0,1040406
198,18,0,1040406
198,18,0,1040406
196,18,0,1040406
192,18,0,1050405
192,18,0,1050405
190,18,0,1050405
188,16,0,1050405
188,16,0,1050405
188,16,0,1050405
186,18,0,1050405
182,16,0,1060406
182,16,0,1060406
180,16,0,1060406
178,16,0,1060406
178,16,0,1060406
178,16,0,1060406
174,18,0,1070438
174,18,0,1070438
172,18,0,1070438
172,18,0,1070438
172,18,0,1070438
169,18,0,1070438
169,18,0,1070438
167,18,0,1080407
167,18,0,1080407
165,18,0,1080407
165,18,0,1080407
163,20,0,1080407
163,18,0,1080407
163,18,0,1080407
163,18,0,1090406
161,16,0,1090406
161,16,0,1090406
159,16,0,1090406
159,16,0,1090406
159,16,0,1090406
155,14,0,1100438
153,14,0,1100700
153,14,0,1101705
151,12,0,1103701
151,12,0,1104689
151,12,0,1105686
151,12,0,1106684
151,10,0,1106684
151,10,0,1107681
149,10,0,1108679
147,10,0,1109633
147,10,0,1110632
145,8,0,1110632
145,8,0,1111629
145,8,0,1112627
143,8,0,1113624
143,8,0,1114622
141,8,0,1116619
141,6,0,1117624
139,6,0,1119609
139,6,0,1120605
137,6,0,1122600
137,4,0,1123598
135,4,0,1125592
135,4,0,1126590
133,4,0,1128585
133,4,0,1129595
131,2,0,1131576
129,2,0,1132573
129,2,0,1134589
129,2,0,1135568
126,2,0,1137561
126,2,0,1138558
126,2,0,1140551
126,2,0,1141550
124,2,0,1143544
124,2,0,1144541
124,2,0,1146537
124,2,0,1147534
124,2,0,1149528
124,4,0,1150526
122,4,0,1152527
122,4,0,1153526
120,8,0,1155512
120,8,0,1157133
120,12,0,1158420
118,14,0,1160415
118,14,0,1161413
118,18,0,1163407
118,18,0,1164246
116,22,0,1166011
116,24,0,1167971
116,28,0,1168969
116,30,0,1170961
114,30,0,1171958
114,32,0,1173954
114,34,0,1174989
114,40,0,1176975
114,40,0,1177942
114,47,0,1179937
110,73,0,1190295
110,77,0,1190295
110,79,0,1190295
110,83,0,1190295
110,86,0,1190295
110,86,0,1190295
110,90,0,1190295
106,106,0,1200263
106,110,0,1200263
106,118,0,1200263
106,122,0,1200263
104,131,0,1200263
104,131,0,1200263
104,135,0,1200263
104,143,0,1210262
104,147,0,1210262
104,151,0,1210262
102,157,0,1210262
102,157,0,1210262
102,165,0,1210262
102,190,0,1220297
102,202,-36,1220297
102,208,-36,1220297
102,212,0,1220297
102,212,0,1220297
102,219,0,1220297
102,225,0,1220297
102,247,0,1230263
102,260,0,1230263
102,266,0,1230263
102,272,0,1230263
102,278,0,1230263
100,284,0,1230263
100,290,0,1230263
102,311,0,1240263
102,317,0,1240263
102,325,0,1240263
100,331,0,1240263
100,331,0,1240263
100,339,0,1240263
100,382,0,1250270
100,397,0,1250270
100,403,0,1250270
100,411,0,1250270
100,417,0,1250270
100,425,0,1250270
100,432,0,1250270
100,458,0,1260263
98,466,0,1261416
98,487,0,1262412
98,487,0,1263410
98,499,0,1263410
98,514,0,1264407
98,514,0,1265405
98,530,0,1265405
98,550,0,1266402
98,573,0,1267400
98,598,0,1268398
98,628,0,1269401
98,628,0,1270393
98,667,0,1271389
100,708,0,1272386
102,815,0,1274380
104,876,0,1275378
106,1011,0,1277372
108,1024,0,1278371
110,1024,0,1280401
112,1024,0,1281144
116,1024,0,1283382
118,1024,0,1284380
124,1024,0,1286375
126,1024,0,1287386
135,1024,0,1289366
139,1024,0,1290364
147,1024,0,1292358
153,1024,0,1293392
167,1024,0,1295350
176,1024,0,1296347
196,1024,0,1298342
206,1024,0,1299340
227,1024,0,1301377
249,1024,0,1302337
260,1024,0,1304364
272,1024,0,1305324
286,1024,0,1307318
292,1024,0,1308315
307,1024,0,1310310
311,1024,0,1311308
323,1024,0,1313340
329,1024,0,1314301
344,1024,0,1316324
348,1024,0,1317293
356,1024,0,1319292
358,1024,0,1320286
364,1024,0,1322278
368,1024,0,1323276
372,1024,0,1324923
378,1024,0,1326916
380,1024,0,1327915
385,1024,0,1329908
385,1024,0,1330907
389,1024,0,1332902
389,1024,0,1333898
389,1024,0,1335896
393,1024,0,1336890
395,1024,0,1338884
393,1024,0,1339881
393,1024,0,1341876
395,1024,0,1342873
397,1024,0,1344868
397,1024,0,1345866
397,1024,0,1347860
397,1024,0,1348858
407,1024,0,1350852
407,1024,0,1351851
417,1024,0,1353845
417,1024,0,1354842
415,1024,0,1356836
411,1024,0,1357833
409,1024,0,1359829
409,1024,0,1360828
409,1024,0,1362820
407,1024,0,1363818
405,1024,0,1365826
405,1024,0,1366811
401,1024,0,1368818
401,1024,0,1369811
401,1024,0,1371797
401,1024,0,1372794
397,1024,0,1374788
399,1024,0,1375787
401,1024,0,1377781
397,1024,0,1378780
397,1024,0,1380803
393,1024,0,1381784
389,1024,0,1383765
389,1024,0,1384761
391,1024,0,1386762
391,1024,0,1387759
393,1024,0,1389748
372,1024,0,1399919
368,1024,0,1399919
366,1024,0,1399919
366,1024,0,1399919
364,1024,0,1399919
362,1024,0,1399919
362,1024,0,1399919
358,1024,0,1409882
354,1024,0,1409882
352,1024,0,1409882
352,1024,0,1409882
348,1024,0,1409882
346,1024,0,1409882
331,1024,0,1419913
329,1024,0,1419913
327,1024,0,1419913
327,1024,0,1419913
325,1024,0,1419913
325,1024,0,1419913
323,1024,0,1419913
315,1024,0,1429881
313,1024,0,1429881
311,1024,0,1429881
309,1024,0,1429881
309,1024,0,1429881
307,1024,0,1429881
305,1024,0,1429881
290,1024,0,1439881
286,1024,0,1439881
282,1024,0,1439881
278,1024,0,1439881
274,1024,0,1439881
270,1024,0,1439881
241,1024,0,1449882
229,1024,0,1449882
223,1024,0,1449882
215,1024,0,1449882
208,1024,0,1449882
200,1024,0,1449882
194,1024,0,1449882
174,1024,0,1459882
167,1024,0,1459882
161,1024,0,1459882
155,1024,0,1459882
155,1024,0,1459882
149,1024,0,1459882
145,1024,0,1459882
116,1024,0,1469883
104,1024,0,1469883
104,1024,0,1469883
100,1024,0,1469883
96,1024,0,1469883
90,1024,0,1469883
71,1024,0,1479881
63,1024,0,1479881
61,1024,0,1479881
57,1024,0,1479881
57,1024,0,1479881
55,1024,0,1479881
51,1024,0,1479881
43,1024,0,1489881
38,1024,0,1489881
36,1024,0,1489881
36,1024,0,1489881
34,1024,0,1489881
32,1024,0,1489881
32,1024,0,1489881
24,1024,0,1499917
24,1024,0,1499917
20,1024,0,1499917
20,1024,0,1499917
18,1024,0,1499917
18,1024,0,1499917
14,1024,0,1509882
14,1024,0,1509882
12,1024,0,1509882
12,1024,0,1509882
12,1024,0,1509882
10,1024,0,1509882
10,1024,0,1509882
8,1024,0,1519882
8,1024,0,1519882
8,1024,0,1519882
6,1024,0,1519882
6,1024,0,1519882
6,1024,0,1519882
6,1024,0,1519882
4,1024,0,1529881
4,1024,0,1529881
4,1024,0,1529881
4,1024,0,1529881
4,1024,0,1529881
2,1024,0,1529881
2,1024,0,1539881
2,1024,0,1539881
2,1024,0,1539881
2,1024,0,1539881
2,1024,0,1539881
2,1024,0,1539881
2,1024,0,1539881
2,1024,0,1549914
0,1024,0,1549914
0,1024,0,1549914
0,1024,0,1549914
0,1024,0,1549914
0,1024,0,1549914
0,1024,0,1549914
0,1024,0,1559882
0,1024,0,1559882
0,1024,0,1559882
0,1024,0,1559882
0,1024,0,1559882
0,1024,0,1559882
0,1024,0,1569881
0,1024,0,1569881
0,1024,0,1569881
0,1024,0,1569881
0,1024,0,1569881
0,1024,0,1569881
0,1024,0,1569881
0,1024,0,1579881
0,1024,0,1579881
0,1024,0,1579881
0,1024,0,1579881
0,1024,0,1579881
0,1024,0,1579881
0,1024,0,1579881
0,1024,0,1589882
0,1024,0,1589882
0,1024,0,1589882
0,1024,0,1589882
0,1024,0,1589882
0,1024,0,1589882
0,1024,0,1599881
0,1024,0,1601140
0,1024,0,1602158
0,1024,0,1604139
0,1024,0,1604139
0,1024,0,1605131
0,1024,0,1606127
0,1024,0,1607124
0,1024,0,1608216
0,1024,0,1609154
0,1024,0,1610132
0,1024,0,1610132
0,1024,0,1611133
0,1024,0,1612130
0,1024,0,1612130
0,1024,0,1613127
0,1024,0,1614136
0,1024,0,1616123
0,1024,0,1617117
0,1024,0,1619113
0,1024,0,1620110
0,1024,0,1622104
0,1024,0,1623101
0,1024,0,1625095
0,1024,0,1626093
0,1024,0,1628088
0,1024,0,1629085
0,1024,0,1631079
0,1024,0,1632076
0,1024,0,1634071
0,1024,0,1635073
0,1024,0,1637065
0,1024,0,1638061
0,1024,0,1640088
0,1024,0,1641086
0,1024,0,1643112
0,1024,0,1644109
0,1024,0,1646104
0,1024,0,1647101
0,1024,0,1649095
0,1024,0,1650093
0,1024,0,1652091
0,1024,0,1653087
0,1024,0,1655080
0,1024,0,1656729
0,999,0,1658040
0,976,0,1659037
0,935,0,1660906
0,892,0,1662901
0,874,0,1663898
0,835,0,1665893
0,835,0,1666890
0,780,0,1668886
0,761,0,1670003
0,745,0,1671053
0,710,0,1672993
0,677,0,1674988
0,661,0,1675987
0,630,0,1677981
0,630,0,1678977
0,585,0,1680972
0,573,0,1681969
0,544,0,1683963
0,530,0,1684961
0,503,0,1686955
0,491,0,1687953
0,466,0,1689948
0,466,0,1690944
0,442,0,1692047
0,432,0,1693733
0,397,0,1695968
0,397,0,1696965
0,364,0,1698960
0,364,0,1699959
0,335,0,1701964
0,335,0,1702952
0,317,0,1704944
0,225,0,1715155
0,217,0,1715155
0,210,0,1715155
0,202,0,1715155
0,196,0,1715155
0,190,0,1715155
0,184,0,1715155
0,159,0,1725122
0,153,0,1725122
0,147,0,1725122
0,147,-36,1725122
0,141,0,1725122
0,135,0,1725122
0,131,0,1725122
0,102,0,1735122
0,98,0,1735122
0,92,0,1735122
0,88,0,1735122
0,83,0,1735122
0,83,0,1735122
0,61,0,1745154
0,61,0,1745154
0,55,0,1745154
0,53,0,1745154
0,53,0,1745154
0,51,0,1745154
0,49,0,1745154
0,36,0,1755123
0,34,0,1755123
0,32,0,1755123
0,32,0,1755123
0,30,0,1755123
0,28,0,1755123
0,28,0,1755123
0,22,0,1765121
0,20,0,1766169
0,18,0,1768165
0,18,0,1769175
0,16,0,1770171
0,16,0,1772153
0,14,0,1772153
0,14,0,1773151
0,14,0,1774148
0,14,0,1775149
0,12,0,1775149
0,12,0,1776149
0,12,0,1777147
0,12,0,1778144
0,10,0,1778144
0,10,0,1779140
0,10,0,1781136
0,8,0,1782133
0,8,0,1784127
0,8,0,1785126
0,6,0,1787120
0,6,0,1788117
0,6,0,1790110
0,6,0,1791108
0,4,0,1793102
0,4,0,1794100
0,4,0,1796095
0,4,0,1797092
0,4,0,1799100
2,2,0,1800084
2,2,0,1802085
2,2,0,1803078
4,2,0,1805072
6,2,0,1806068
8,2,0,1808063
8,2,0,1809059
10,2,0,1811054
12,2,0,1812053
14,0,0,1814046
16,0,0,1815044
18,0,0,1817038
20,0,0,1818067
24,0,0,1820075
24,0,0,1821061
28,0,0,1823055
30,0,0,1824053
34,0,0,1826048
36,0,0,1827162
40,0,0,1829160
43,0,0,1830156
47,0,0,1832151
49,0,0,1833148
53,0,0,1835147
55,0,0,1836140
57,0,0,1838136
57,0,0,1839132
61,0,0,1841128
61,0,0,1842125
65,0,0,1844119
67,0,0,1845117
69,0,0,1847112
71,0,0,1848109
73,0,0,1850103
75,0,0,1851105
77,0,0,1853115
79,0,0,1854093
81,0,0,1856087
83,0,0,1857085
86,0,0,1859093
88,0,0,1860077
90,0,0,1862071
90,0,0,1863068
94,0,0,1865064
96,0,0,1866061
98,0,0,1868059
100,0,0,1869052
100,0,0,1871048
102,0,0,1872045
104,0,0,1874039
106,0,0,1875037
106,0,0,1877032
108,0,0,1878029
110,0,0,1880023
110,0,0,1881021
112,0,0,1883016
114,0,0,1884012
118,0,0,1886009
118,0,0,1887006
120,0,0,1888999
120,0,0,1890212
126,0,0,1900249
129,0,0,1900249
129,0,0,1900249
133,0,0,1900249
133,0,0,1900249
135,0,0,1900249
137,0,0,1910214
139,0,0,1910214
139,0,0,1910214
139,0,0,1910214
141,0,0,1910214
141,0,0,1910214
141,0,0,1910214
143,0,0,1920214
145,0,0,1920214
145,0,0,1920214
147,0,0,1920214
147,0,0,1920214
147,0,0,1920214
147,0,0,1920214
149,0,0,1930214
149,0,0,1930214
149,0,0,1930214
149,0,0,1930214
149,0,0,1930214
149,0,0,1930214
149,0,0,1940246
151,0,0,1940246
151,0,0,1940246
151,0,0,1940246
151,0,0,1940246
151,0,0,1940246
151,0,0,1940246
151,0,0,1950214
149,0,0,1950214
149,0,0,1950214
149,0,0,1950214
149,0,0,1950214
151,0,0,1950214
151,0,0,1950214
151,0,0,1960214
151,0,0,1960214
151,0,0,1960214
151,0,0,1960214
151,0,0,1960214
151,0,0,1960214
151,0,0,1970213
149,0,0,1970213
149,0,0,1970213
149,0,0,1970213
149,0,0,1970213
149,0,0,1970213
149,0,0,1970213
145,0,-36,1980213
145,0,0,1980213
143,0,0,1980213
143,0,0,1980213
143,0,0,1980213
143,0,0,1980213
141,0,0,1980213
137,0,0,1990249
135,0,0,1990249
133,0,0,1990249
133,0,0,1990249
133,0,0,1990249
133,0,0,1990249
124,0,0,2000213
124,0,0,2000213
122,0,0,2000213
122,0,0,2000213
122,0,0,2000213
120,0,0,2000213
120,0,0,2000213
116,0,0,2010215
114,0,0,2010215
114,0,0,2010215
112,0,0,2010215
112,0,0,2010215
112,0,0,2010215
110,0,0,2010215
102,0,0,2020214
100,0,0,2020214
100,0,0,2020214
98,0,0,2020214
98,0,0,2020214
96,0,0,2020214
90,0,0,2030213
88,0,0,2030213
86,0,0,2030213
83,0,0,2030213
83,0,0,2030213
83,0,0,2030213
83,0,0,2030213
77,0,0,2040218
75,0,0,2040218
75,0,0,2040218
73,0,0,2040218
71,0,0,2040218
71,0,0,2040218
71,0,0,2040218
67,0,0,2050252
67,0,0,2050252
65,0,0,2050252
65,0,0,2050252
63,0,0,2050252
63,0,0,2050252
57,0,0,2060214
57,0,0,2060214
55,0,0,2060214
53,0,0,2060214
53,0,0,2060214
53,0,0,2060214
51,0,0,2060214
47,0,0,2070213
47,0,0,2070213
45,0,0,2070213
45,0,0,2070213
45,0,0,2070213
43,0,0,2070213
43,0,0,2070213
38,0,0,2080214
36,0,0,2080214
36,0,0,2080214
36,0,0,2080214
34,0,0,2080214
32,0,0,2080214
28,0,0,2090245
26,0,0,2090245
24,0,0,2090245
24,0,0,2090245
24,0,0,2090245
22,0,0,2090245
22,0,0,2090245
18,0,0,2100213
16,0,0,2101562
16,0,0,2102550
14,0,0,2103536
14,0,0,2105529
14,0,0,2105529
14,0,0,2106527
12,0,0,2107525
12,0,0,2107525
12,0,0,2108522
12,0,0,2109518
12,0,0,2110528
10,0,0,2111514
10,0,0,2111514
10,0,0,2112511
10,0,0,2113509
10,0,0,2115503
8,0,0,2116500
8,0,0,2118499
8,0,0,2120489
8,0,0,2121407
6,0,0,2122551
6,0,0,2124549
6,0,0,2125547
6,0,0,2127540
4,0,0,2128538
4,0,0,2130533
4,0,0,2131530
4,0,0,2133524
4,0,0,2134522
4,0,0,2136518
4,0,0,2137516
4,0,0,2139508
4,0,0,2140506
4,0,0,2142500
6,0,0,2144495
6,0,0,2145500
6,0,0,2147486
6,0,0,2148484
6,0,0,2150480
8,0,0,2151480
8,0,0,2153477
10,0,0,2154469
10,0,0,2156473
10,0,0,2157465
10,0,0,2158516
10,0,0,2160193
10,0,0,2162187
12,0,0,2163215
14,0,0,2165208
14,0,0,2166177
14,0,0,2168182
14,0,0,2169168
14,0,0,2171163
16,0,0,2172160
16,0,0,2174192
18,0,0,2175154
20,0,0,2177148
20,0,0,2178145
20,0,0,2180139
20,0,0,2181136
28,0,0,2191402
30,0,0,2191402
30,0,0,2191402
32,0,0,2191402
32,0,0,2191402
32,0,0,2191402
36,0,0,2201440
36,0,0,2201440
38,0,0,2201440
40,0,0,2201440
40,0,0,2201440
40,0,0,2201440
40,0,0,2201440
45,0,0,2211440
47,0,0,2211440
49,0,0,2211440
49,0,0,2211440
49,0,0,2211440
49,0,0,2211440
51,0,0,2211440
55,0,0,2221403
57,0,0,2221403
57,0,0,2221403
59,0,0,2221403
59,0,0,2221403
59,0,0,2221403
63,0,0,2231434
67,0,0,2231434
67,0,-36,2231434
67,0,0,2231434
69,0,0,2231434
69,0,0,2231434
71,0,0,2231434
79,0,0,2241442
81,0,0,2241442
88,0,0,2241442
88,0,0,2241442
88,0,0,2241442
90,0,0,2241442
90,0,0,2241442
104,0,0,2251402
110,0,0,2251402
114,0,0,2251402
118,0,0,2251402
122,0,0,2251402
129,0,0,2251402
149,0,0,2261401
159,0,0,2262611
165,0,0,2263604
165,0,0,2264603
172,0,0,2264603
178,0,0,2265600
178,0,0,2266598
184,0,0,2266598
190,0,0,2267594
198,0,0,2268596
198,0,0,2269597
210,0,0,2270633
210,0,0,2271614
217,0,0,2271614
223,0,0,2272625
229,0,0,2274608
237,0,0,2275605
251,0,0,2277600
258,0,0,2278600
272,0,0,2280493
290,0,0,2282487
301,0,0,2283485
321,0,0,2285480
342,0,0,2286488
354,0,0,2288472
364,0,0,2289469
387,0,0,2291463
397,0,0,2292492
419,0,0,2294490
430,0,0,2295487
450,0,0,2297482
460,0,0,2298479
479,0,0,2300475
487,0,0,2301471
503,0,0,2303471
512,0,1,2304463
526,0,2,2306457
532,0,5,2307455
542,0,11,2309449
548,0,15,2310447
557,0,25,2312441
559,0,30,2313447
565,0,42,2315434
567,0,48,2316430
569,0,61,2318425
569,0,74,2319431
569,0,80,2321426
569,0,87,2322415
565,0,106,2324409
565,0,106,2325407
559,0,118,2327401
557,0,124,2328156
552,0,134,2330381
548,0,139,2331378
542,0,148,2333373
542,0,152,2334063
530,0,159,2335978
524,0,164,2337969
520,0,166,2338981
509,0,168,2340961
505,0,168,2341959
495,0,168,2343953
489,0,168,2344950
479,0,168,2346944
475,0,168,2347942
462,0,168,2349941
456,0,168,2350944
444,0,168,2352933
434,0,168,2353928
428,0,168,2355921
421,0,168,2356918
409,0,168,2358917
403,0,168,2359910
391,0,168,2361906
385,0,168,2362903
372,0,168,2364913
360,0,168,2365896
354,0,168,2367889
350,0,168,2368887
337,0,168,2370883
333,0,168,2371878
321,0,168,2373872
315,0,168,2374869
305,0,168,2376864
299,0,168,2377866
288,0,168,2379895
284,0,168,2380855
272,0,168,2382850
268,0,168,2383859
258,0,168,2385843
251,0,168,2386852
241,0,168,2388833
233,0,168,2389831
227,0,168,2391076
188,0,168,2401076
180,0,168,2401076
176,0,168,2401076
167,0,168,2401076
163,0,168,2401076
159,0,168,2401076
149,0,168,2411078
145,0,168,2411078
143,0,168,2411078
139,0,168,2411078
135,0,168,2411078
135,0,168,2411078
131,0,168,2411078
114,0,168,2421078
108,0,168,2421078
106,0,168,2421078
102,0,168,2421078
98,0,168,2421078
94,0,168,2421078
92,0,168,2421078
83,0,168,2431076
79,0,168,2431076
77,0,168,2431076
73,0,168,2431076
71,0,168,2431076
71,0,168,2431076
57,0,168,2441112
53,0,168,2441112
49,0,168,2441112
49,0,168,2441112
47,0,168,2441112
45,0,168,2441112
45,0,168,2441112
34,0,168,2451078
30,0,168,2451078
28,0,168,2451078
28,0,168,2451078
26,0,168,2451078
24,0,168,2451078
24,0,168,2451078
20,0,168,2461077
18,0,168,2461077
18,0,168,2461077
16,0,168,2461077
16,0,168,2461077
16,0,168,2461077
12,0,168,2471078
10,0,168,2471078
10,0,168,2471078
10,0,168,2471078
10,0,168,2471078
8,0,168,2471078
8,0,168,2471078
6,0,168,2481077
6,0,168,2481077
6,0,168,2481077
6,0,168,2481077
6,0,168,2481077
4,0,-36,2481077
4,0,0,2481077
4,0,0,2491080
4,0,0,2491080
4,0,0,2491080
2,0,0,2491080
4,0,0,2491080
4,0,0,2491080
75,0,0,2501076
104,0,0,2501076
176,0,0,2501076
217,0,0,2501076
217,0,0,2501076
262,0,0,2501076
307,0,0,2501076
509,0,0,2511077
565,0,6,2511077
620,0,6,2511077
620,0,17,2511077
679,0,34,2511077
739,0,34,2511077
739,0,57,2511077
1024,0,308,2521079
1024,0,358,2521079
1024,0,408,2521079
1024,0,458,2521079
1024,0,508,2521079
1024,0,508,2521079
1024,0,808,2531077
1024,0,808,2531077
1024,0,858,2531077
1024,0,908,2531077
1024,0,958,2531077
1024,0,958,2531077
1024,0,1058,2531077
1024,0,1308,2541078
1024,0,1358,2541078
1024,0,1408,2541078
1024,0,1458,2541078
1024,0,1508,2541078
1024,0,1508,2541078
1024,0,1558,2541078
1024,0,1808,2551077
1024,0,1908,2551077
1024,0,1958,2551077
1024,0,1958,2551077
1024,0,2008,2551077
1024,0,2058,2551077
1024,0,2308,2561077
1024,0,2358,2561077
1024,0,2408,2561077
1024,0,2408,2561077
1024,0,2458,2561077
1024,0,2508,2561077
1024,0,2558,2561077
1024,0,2808,2571078
1024,0,2858,2571078
1024,0,2908,2571078
1024,0,2958,2571078
1024,0,2958,2571078
1024,0,3008,2571078
1024,0,3058,2571078
1024,0,3308,2581115
1024,0,3358,2581115
1024,0,3408,2581115
1024,0,3458,2581115
1024,0,3508,2581115
1024,0,3558,2581115
1024,0,3808,2591078
1024,0,3858,2592394
1024,0,3908,2593378
1024,0,3958,2594380
1024,0,4008,2595384
1024,0,4058,2596373
1024,0,4108,2597561
1024,0,4158,2598158
1024,0,4208,2599159
1024,0,4258,2600156
1024,0,4258,2601152
1024,0,4308,2601152
1024,0,4358,2602149
1024,0,4408,2603148
1024,0,4458,2604148
1024,0,4508,2605141
1024,0,4558,2606139
1024,0,4558,2607137
1024,0,4658,2609131
1024,0,4758,2610945
1024,0,4808,2612134
1024,0,4858,2613133
1024,0,4958,2615128
1024,0,5008,2616127
1024,0,5108,2618120
1024,0,5208,2619157
1024,0,5258,2621116
1024,0,5308,2622111
1024,0,5408,2624105
1024,0,5458,2625102
1024,0,5558,2627096
1024,0,5608,2628093
1024,0,5708,2630087
1024,0,5758,2631085
1024,0,5858,2633082
1024,0,5908,2634077
1024,0,6008,2636086
1024,0,6058,2637077
1024,0,6158,2639064
1024,0,6208,2640062
1024,0,6308,2642056
1024,0,6358,2643054
1024,0,6458,2645049
1024,0,6508,2646045
1024,0,6608,2648039
1024,0,6658,2649037
1024,0,6758,2651032
1024,0,6858,2652691
1024,0,6908,2653688
1024,0,7008,2655683
1024,0,7058,2656686
1024,0,7158,2658674
1024,0,7158,2659557
1024,0,7258,2661185
1024,0,7358,2663180
1024,0,7458,2664801
1024,0,7508,2665798
1024,0,7608,2667823
1024,0,7658,2668790
1024,0,7758,2670784
1024,0,7808,2671783
1024,0,7908,2673776
1024,0,7958,2674775
1024,0,8058,2676769
1024,0,8108,2677767
1024,0,8208,2679760
1024,0,8258,2680759
1024,0,8808,2691887
1024,0,8908,2691887
1024,0,8958,2691887
1024,0,8958,2691887
1024,0,9008,2691887
1015,0,9058,2691887
1015,0,9107,2691887
921,0,9318,2701851
876,0,9354,2701851
833,0,9388,2701851
813,0,9420,2701851
792,0,9449,2701851
792,0,9477,2701851
772,0,9503,2701851
714,0,9569,2711851
696,0,9588,2711851
677,0,9605,2711851
659,0,9605,2711851
659,0,9620,2711851
643,0,9634,2711851
546,0,9682,2721883
516,0,9686,2721883
501,0,9686,2721883
487,0,9686,2721883
487,0,9686,2721883
473,0,9686,2721883
458,0,9686,2721883
407,0,9686,2731851
372,0,9686,2731851
360,0,9686,2731851
348,0,9686,2731851
337,0,9686,2731851
327,0,9686,2731851
327,0,9686,2731851
296,0,9686,2741851
286,0,9686,2741851
286,0,9686,2741851
278,0,9686,2741851
268,0,9686,2741851
260,0,9686,2741851
208,0,9686,2751884
200,0,9686,2751884
186,0,9686,2751884
169,0,9686,2751884
169,0,9686,2751884
163,0,9686,2751884
155,0,9686,2751884
137,0,9686,2761890
131,0,9686,2762142
124,0,9686,2763146
118,0,9686,2764138
118,0,9686,2765135
112,0,9686,2765135
108,0,9686,2766132
102,0,9686,2767130
98,0,9686,2768128
92,0,9686,2769144
88,0,9686,2770826
83,0,9686,2770826
79,0,9686,2771788
79,0,9686,2772788
75,0,9686,2773785
67,0,9686,2775789
65,0,9686,2776778
59,0,9686,2778772
53,0,9686,2780490
51,0,9686,2781488
47,0,9686,2782779
43,0,9686,2784776
40,0,9686,2785774
36,0,9686,2787771
34,0,9686,2788774
30,0,9686,2790760
30,0,9686,2791758
26,0,9686,2793752
26,0,9686,2794750
22,0,9686,2796744
22,0,9686,2797742
20,0,9686,2799737
18,0,9686,2800734
16,0,9686,2802730
16,0,9686,2803728
14,0,9686,2805720
14,0,9686,2806718
12,0,9686,2808712
12,0,9686,2809710
10,0,9686,2811704
10,0,9686,2812716
8,0,9686,2814697
8,0,9686,2815696
8,0,9686,2817689
8,0,9686,2818686
6,0,9686,2820689
6,0,9686,2821694
4,0,9686,2823675
4,0,9686,2824671
4,0,9686,2826666
4,0,9686,2827662
4,0,9686,2829642
4,0,9686,2830694
2,0,9686,2832693
2,0,9686,2834239
2,0,9686,2835236
2,0,9686,2837235
2,0,9686,2838229
2,0,9686,2840222
2,0,9686,2841219
2,0,9686,2843214
0,0,9686,2844212
0,0,9686,2846245
0,0,9686,2847205
0,0,9686,2849198
0,0,9686,2850196
0,0,9686,2852196
0,0,9686,2853200
0,0,9686,2855183
0,0,9686,2856180
0,0,9686,2858213
0,0,9686,2859172
0,0,9686,2861166
0,0,9686,2862164
0,0,9686,2864158
0,0,9686,2865156
0,0,9686,2867167
0,0,9686,2868149
0,0,9686,2870158
0,0,9686,2871142
0,0,9686,2873134
0,0,9686,2874131
0,0,9686,2876126
0,0,9686,2877124
0,0,9686,2879120
0,0,9686,2880152
0,0,9686,2882110
0,0,9686,2883107
0,0,9686,2885102
0,0,9686,2886101
0,0,9686,2888135
0,0,9686,2889092
0,0,9686,2891086
0,0,9686,2901294
0,0,9686,2901294
0,0,9686,2901294
0,0,9686,2901294
0,0,9686,2901294
0,0,9686,2901294
0,0,9686,2901294
0,0,9686,2911323
0,0,9686,2911323
0,0,9686,2911323
0,0,9686,2911323
0,0,9686,2911323
0,0,9686,2911323
0,0,9686,2921321
0,0,9686,2921321
0,0,9686,2921321
0,0,9686,2921321
0,0,9686,2921321
0,0,9686,2921321
0,0,9686,2921321
0,0,9686,2931287
0,0,9686,2931287
0,0,9686,2931287
0,0,9686,2931287
0,0,9686,2931287
0,0,9686,2931287
0,0,9686,2931287
0,0,9686,2941287
0,0,9686,2941287
0,0,9686,2941287
0,0,9686,2941287
0,0,9686,2941287
0,0,9686,2941287
0,0,9686,2951287
0,0,9686,2951287
0,0,9686,2951287
0,0,9686,2951287
0,0,9686,2951287
0,0,9686,2951287
0,0,9686,2951287
0,0,9686,2961292
0,0,9686,2961292
0,0,9686,2961292
0,0,9686,2961292
0,0,9686,2961292
0,0,9686,2961292
0,0,9686,2961292
0,0,0,2971321
0,0,0,2971321
0,0,0,2971321
0,0,0,2971321
0,0,0,2971321
0,0,0,2971321
0,0,0,2981287
0,0,0,2981287
0,0,0,2981287
0,0,0,2981287
0,0,0,2981287
0,0,0,2981287
0,0,0,2981287
0,0,0,2991287
0,0,0,2991287
0,0,0,2991287
0,0,0,2991287
0,0,0,2991287
0,0,0,2991287
0,0,0,2991287
0,0,0,3001287
0,0,0,3001287
0,0,0,3001287
0,0,0,3001287
0,0,0,3001287
0,0,0,3001287
0,0,0,3011287
0,0,0,3011287
0,0,0,3011287
0,0,0,3011287
0,0,0,3011287
0,0,0,3011287
0,0,0,3011287
0,0,0,3021319
0,0,0,3021319
0,0,0,3021319
0,0,0,3021319
0,0,0,3021319
0,0,0,3021319
0,0,0,3021319
0,0,0,3031287
0,0,0,3031287
0,0,0,3031287
0,0,0,3031287
0,0,0,3031287
0,0,0,3031287
0,0,0,3041286
0,0,0,3041286
0,0,0,3041286
0,0,0,3041286
0,0,0,3041286
0,0,0,3041286
0,0,0,3041286
0,0,0,3051288
0,0,0,3051288
0,0,0,3051288
0,0,0,3051288
0,0,0,3051288
0,0,0,3051288
0,0,0,3051288
0,0,0,3061321
0,0,0,3061321
0,0,0,3061321
0,0,0,3061321
0,0,0,3061321
0,0,0,3061321
0,0,0,3071289
0,0,0,3071289
0,0,0,3071289
0,0,0,3071289
0,0,0,3071289
0,0,0,3071289
0,0,0,3071289
0,0,0,3081319
0,0,0,3081319
0,0,0,3081319
0,0,0,3081319
0,0,0,3081319
0,0,0,3081319
0,0,0,3081319
0,0,0,3091320
0,0,0,3091320
0,0,0,3091320
0,0,0,3091320
0,0,0,3091320
0,0,0,3091320
0,0,0,3101308
0,0,0,3102727
0,0,0,3103726
0,0,0,3104737
0,0,0,3106121
0,0,0,3106585
0,0,0,3107585
0,0,0,3107585
0,0,0,3108587
0,0,0,3109582
0,0,0,3110141
0,0,0,3110565
0,0,0,3111325
0,0,0,3111325
0,0,0,3113323
0,0,0,3114566
0,0,0,3115563
0,0,0,3117558
0,0,0,3118555
0,0,0,3120163
0,0,0,3122157
0,0,0,3123342
0,0,0,3125339
0,0,0,3126337
0,0,0,3128333
0,0,0,3129328
0,0,0,3131323
0,0,0,3132321
0,0,0,3134315
0,0,0,3135312
0,0,0,3137307
0,0,0,3138305
0,0,0,3140299
0,0,0,3141297
0,0,0,3143291
0,0,0,3144289
0,0,0,3146283
0,0,0,3147148
0,0,0,3149370
0,0,0,3150095
0,0,0,3152036
0,0,0,3153033
0,0,0,3155060
0,0,0,3156057
0,0,0,3158019
0,0,0,3159734
0,0,0,3161288
0,0,0,3162285
0,0,0,3164280
0,0,0,3165277
0,0,0,3167272
0,0,0,3168863
0,0,0,3169860
0,0,0,3171854
0,0,0,3172852
0,0,0,3174847
0,0,0,3175844
0,0,0,3177839
0,0,0,3178836
0,0,0,3180831
0,0,0,3181828
0,0,0,3192011
0,0,0,3192011
0,0,0,3192011
0,0,0,3192011
0,0,0,3192011
0,0,0,3192011
0,0,0,3192011
0,0,0,3201974
0,0,0,3201974
0,0,0,3201974
0,0,0,3201974
0,0,0,3201974
0,0,0,3201974
0,0,0,3211973
0,0,0,3211973
0,0,0,3211973
0,0,0,3211973
0,0,0,3211973
0,0,0,3211973
0,0,0,3211973
0,0,0,3221977
0,0,0,3221977
0,0,0,3221977
0,0,0,3221977
0,0,0,3221977
0,0,0,3221977
0,0,0,3231974
0,0,0,3231974
0,0,0,3231974
0,0,0,3231974
0,0,0,3231974
0,0,0,3231974
0,0,0,3231974
0,0,0,3241974
0,0,0,3241974
0,0,0,3241974
0,0,0,3241974
0,0,0,3241974
0,0,0,3241974
0,0,0,3241974
0,0,0,3251974
0,0,0,3251974
0,0,0,3251974
0,0,0,3251974
0,0,0,3251974
0,0,0,3251974
0,0,0,3262007
0,0,0,3263149
0,0,0,3264147
0,0,0,3264147
0,0,0,3265144
0,0,0,3266146
0,0,0,3266146
0,0,0,3267138
0,0,0,3268516
0,0,0,3269114
0,0,0,3269114
0,0,0,3270491
0,0,0,3271092
0,0,0,3271980
0,0,0,3273977
0,0,0,3274974
0,0,0,3276969
0,0,0,3277966
0,0,0,3279961
0,0,0,3281291
0,0,0,3282289
0,0,0,3284283
0,0,0,3285288
0,0,0,3287275
0,0,0,3288273
0,0,0,3290267
0,0,0,3291162
0,0,0,3292982
0,0,0,3294976
0,0,0,3295974
0,0,0,3297969
0,0,0,3299274
0,0,0,3300273
0,0,0,3302269
0,0,0,3303893
0,0,0,3304891
0,0,0,3306885
0,0,0,3307641
0,0,0,3309319
0,0,0,3311313
0,0,0,3312311
0,0,0,3314306
0,0,0,3315303
0,0,0,3316934
0,0,0,3318929
0,0,0,3319641
0,0,0,3321268
0,0,0,3323262
0,0,0,3324859
0,0,0,3325856
0,0,0,3327724
0,0,0,3328721
0,0,0,3330295
0,0,0,3331895
0,0,0,3333889
0,0,0,3334888
0,0,0,3336880
0,0,0,3337878
0,0,0,3339873
0,0,0,3340791
0,0,0,3342490
0,0,0,3343690
0,0,0,3345685
0,0,0,3346683
0,0,0,3348677
0,0,0,3349674
0,0,0,3351668
0,0,0,3352666
0,0,0,3354660
0,0,0,3355658
0,0,0,3357653
0,0,0,3358651
0,0,0,3360750
0,0,0,3361787
0,0,0,3363772
0,0,0,3364770
0,0,0,3366766
0,0,0,3367763
0,0,0,3369726
0,0,0,3370724
0,0,0,3372719
0,0,0,3373717
0,0,0,3375710
0,0,0,3376708
0,0,0,3378703
0,0,0,3379509
0,0,0,3381714
0,0,0,3382711
0,0,0,3384705
0,0,0,3385704
0,0,0,3387698
0,0,0,3388695
0,0,0,3399834
0,0,0,3399834
0,0,0,3399834
0,0,0,3399834
0,0,0,3399834
0,0,0,3399834
0,0,0,3399834
0,0,0,3409796
0,0,0,3409796
0,0,0,3409796
0,0,0,3409796
0,0,0,3409796
0,0,0,3409796
0,0,0,3409796
0,0,0,3419829
0,0,0,3419829
0,0,0,3419829
0,0,0,3419829
0,0,0,3419829
0,0,0,3419829
0,0,0,3429830
0,0,0,3429830
0,0,0,3429830
0,0,0,3429830
0,0,0,3429830
0,0,0,3429830
0,0,0,3429830
0,0,0,3439797
0,0,0,3439797
0,0,0,3439797
0,0,0,3439797
0,0,0,3439797
0,0,0,3439797
0,0,0,3439797
0,0,0,3449796
0,0,0,3449796
0,0,0,3449796
0,0,0,3449796
0,0,0,3449796
0,0,0,3449796
0,0,0,3459829
0,0,0,3459829
0,0,0,3459829
0,0,0,3459829
0,0,0,3459829
0,0,0,3459829
0,0,0,3459829
0,22,0,3469832
0,32,0,3469832
0,45,0,3469832
0,57,-36,3469832
0,73,-36,3469832
0,73,0,3469832
0,90,0,3469832
0,188,0,3479797
0,210,0,3479797
0,258,0,3479797
0,284,0,3479797
0,284,0,3479797
0,313,0,3479797
0,458,0,3489796
0,489,0,3489796
0,520,0,3489796
0,548,0,3489796
0,577,0,3489796
0,606,0,3489796
0,634,0,3489796
0,739,0,3499796
0,761,0,3499796
0,784,0,3499796
0,806,0,3499796
0,847,0,3499796
0,847,0,3499796
0,866,0,3499796
0,917,0,3509797
0,944,0,3509797
0,956,0,3509797
0,956,0,3509797
0,968,0,3509797
0,976,0,3509797
0,1015,0,3519822
0,1024,0,3519822
0,1024,0,3519822
0,1024,0,3519822
0,1024,0,3519822
0,1024,0,3519822
0,1024,0,3519822
0,1024,0,3529796
0,1024,0,3529796
0,1024,0,3529796
0,1024,0,3529796
0,1019,0,3529796
0,1019,0,3529796
0,1015,0,3529796
0,993,0,3539807
0,985,0,3539807
0,970,0,3539807
0,970,0,3539807
0,964,0,3539807
0,958,0,3539807
0,921,0,3549836
0,913,0,3549836
0,894,0,3549836
0,886,0,3549836
0,876,0,3549836
0,876,0,3549836
0,868,0,3549836
0,835,0,3559834
0,817,0,3559834
0,808,0,3559834
0,800,0,3559834
0,790,0,3559834
0,782,0,3559834
0,782,0,3559834
0,745,0,3569797
0,729,0,3569797
0,720,0,3569797
0,712,0,3569797
0,704,0,3569797
0,696,0,3569797
0,665,0,3579797
0,649,0,3579797
0,643,0,3579797
0,634,0,3579797
0,628,0,3579797
0,628,0,3579797
0,620,0,3579797
0,593,0,3589804
0,587,0,3589804
0,581,0,3589804
0,575,0,3589804
0,569,0,3589804
0,563,0,3589804
0,563,0,3589804
0,540,0,3599798
0,532,0,3600973
0,528,0,3601973
0,528,0,3602968
0,522,0,3603969
0,518,0,3604986
0,518,0,3605960
0,516,0,3605960
0,514,0,3606958
0,512,0,3607967
0,512,0,3608952
0,509,0,3609951
0,509,0,3609951
0,507,0,3610948
0,505,0,3612941
0,505,0,3613939
0,505,0,3615947
0,505,0,3616931
0,505,0,3618962
0,505,0,3619968
0,514,0,3621957
0,518,0,3622915
0,530,0,3624909
0,540,0,3625909
0,569,0,3627901
0,591,0,3628901
0,645,0,3630893
0,675,0,3631891
0,749,0,3633885
0,788,0,3634884
0,874,0,3636877
0,921,0,3637878
0,1024,0,3639885
0,1024,0,3640868
0,1024,0,3642862
0,1024,0,3643859
0,1024,0,3645853
0,1024,0,3646852
0,1024,0,3648845
0,1024,0,3649845
0,1024,0,3651876
0,1024,0,3652835
0,1024,0,3654833
0,1024,0,3655829
0,1024,0,3657821
0,1024,0,3658818
0,1024,0,3660814
0,1024,0,3661849
2,1024,0,3663805
2,1024,0,3664807
2,1024,0,3666797
4,1024,0,3668490
4,1024,0,3669488
8,1024,0,3671486
8,1024,0,3672485
12,1024,0,3674474
14,1024,0,3675472
18,1024,0,3677465
22,1024,0,3678463
28,1024,0,3680457
28,1024,0,3681454
40,1024,0,3683488
40,1024,0,3684448
51,1024,0,3686442
51,1024,0,3687443
63,1024,0,3689435
63,1024,0,3690432
77,1024,0,3692426
81,1024,0,3693424
94,1024,0,3695418
104,1024,0,3696519
112,1024,0,3697555
124,1024,0,3699513
133,1024,0,3700510
145,1024,0,3702505
149,1024,0,3703516
159,1024,0,3705499
163,1024,0,3706532
202,1024,0,3716833
204,1024,0,3716833
206,1024,0,3716833
210,1024,0,3716833
212,1024,0,3716833
212,1024,0,3716833
217,1024,0,3726802
217,1024,0,3726802
217,1024,0,3726802
217,1024,0,3726802
215,1024,0,3726802
215,1024,0,3726802
212,1024,0,3726802
200,1024,0,3736801
196,1024,0,3736801
194,1024,0,3736801
188,1024,0,3736801
186,1024,0,3736801
180,1024,0,3736801
180,1024,0,3736801
157,1024,0,3746802
153,1024,0,3746802
149,1024,0,3746802
149,1024,0,3746802
143,1024,0,3746802
139,1024,0,3746802
108,1024,0,3756803
104,1024,0,3756803
100,1024,0,3756803
96,1024,0,3756803
96,1024,0,3756803
94,1024,0,3756803
88,1024,0,3756803
69,1024,0,3766802
65,1024,0,3768073
63,1024,0,3769074
59,1024,0,3770065
57,1024,0,3771074
51,1024,0,3773056
51,1024,0,3773056
49,1024,0,3774053
45,1024,0,3775050
45,1024,0,3775050
43,1024,0,3776048
40,1024,0,3777059
38,1024,0,3778043
36,1024,0,3779039
34,1024,0,3780036
34,1024,0,3780036
32,1024,0,3782030
30,1024,0,3783027
26,1024,0,3785038
26,1024,0,3786031
22,1024,0,3788018
22,1024,0,3789013
20,1024,0,3791008
18,1024,0,3792003
16,1024,0,3793998
14,1024,0,3795993
14,1024,0,3796991
12,1024,0,3798985
12,1024,0,3800041
12,1024,0,3801038
10,1024,0,3803033
10,1024,0,3804041
8,1024,0,3806030
8,1024,0,3807022
8,1024,0,3809016
6,1024,0,3810015
6,1024,0,3812009
6,1024,0,3813006
4,1024,0,3815001
4,1024,0,3817009
4,1024,0,3817993
4,1024,0,3819987
4,1024,0,3820989
2,1024,0,3822981
2,1024,0,3823646
2,1024,0,3825672
2,1024,0,3826640
2,1024,0,3828635
2,1024,0,3829632
2,1024,0,3831628
2,1024,0,3832625
2,1024,0,3834618
0,1024,0,3835616
0,1024,0,3837612
0,1024,0,3838608
0,1024,0,3840603
0,1024,0,3841601
0,1024,0,3843594
0,1024,0,3844593
0,1024,0,3846588
0,1024,0,3847583
0,1024,0,3849578
0,1024,0,3850576
0,1024,0,3852612
0,1024,0,3853568
0,1015,0,3855567
0,991,0,3856560
0,946,0,3858554
0,923,0,3859552
0,880,0,3861547
0,860,0,3862581
0,819,0,3864538
0,800,0,3865536
0,761,0,3867544
0,743,0,3868527
0,706,0,3870524
0,690,0,3871535
0,655,0,3873515
0,638,0,3874512
0,606,0,3876507
0,591,0,3877517
0,561,0,3879498
0,532,0,3881493
0,516,0,3882491
0,489,0,3884497
0,477,0,3885483
0,452,0,3887483
0,440,0,3888477
0,428,0,3889734
0,321,0,3899734
0,311,0,3899734
0,292,0,3899734
0,292,0,3899734
0,274,0,3899734
0,274,0,3899734
0,233,0,3909735
0,219,0,3909735
0,210,0,3909735
0,210,0,3909735
0,202,0,3909735
0,194,0,3913931
0,186,0,3914928
0,180,0,3916079
0,180,0,3916079
0,174,0,3916079
0,165,0,3916079
0,122,0,3926081
0,112,0,3926081
0,108,0,3926081
0,104,0,3926081
0,104,0,3926081
0,98,0,3926081
0,94,0,3926081
0,75,0,3936080
0,69,0,3936080
0,63,0,3936080
0,63,0,3936080
0,59,0,3936080
0,57,0,3936080
0,53,0,3936080
0,45,0,3946086
0,43,0,3946086
0,40,0,3946086
0,38,0,3946086
0,36,0,3946086
0,36,0,3946086
0,26,0,3956114
0,24,0,3956114
0,22,0,3956114
0,22,0,3956114
0,22,0,3956114
0,20,0,3956114
0,20,0,3956114
0,16,0,3966081
0,14,0,3966081
0,12,0,3966081
0,12,0,3966081
0,12,0,3966081
0,10,0,3966081
0,10,0,3966081
0,8,0,3976080
0,8,0,3976080
0,8,0,3976080
0,8,-36,3976080
0,8,-36,3976080
0,8,0,3976080
0,4,0,3986121
0,4,0,3986121
0,4,0,3986121
0,4,0,3986121
0,4,0,3986121
0,4,0,3986121
0,4,0,3986121
0,2,0,3996081
0,2,0,3996081
0,2,0,3996081
0,2,0,3996081
0,2,0,3996081
0,2,0,3996081
0,2,0,3996081
0,2,0,4006082
0,0,0,4006082
0,0,0,4006082
0,0,0,4006082
0,0,0,4006082
0,0,0,4006082
0,0,0,4016080
0,0,0,4016080
0,0,0,4016080
0,0,0,4016080
0,0,0,4016080
0,0,0,4016080
0,0,0,4016080
0,0,0,4026080
0,0,0,4026080
0,0,0,4026080
0,0,0,4026080
0,0,0,4026080
0,0,0,4026080
0,0,0,4026080
0,0,0,4036118
0,0,0,4036118
0,0,0,4036118
0,0,0,4036118
0,0,0,4036118
0,0,0,4036118
0,0,0,4046081
0,0,0,4046081
0,0,0,4046081
0,0,0,4046081
0,0,0,4046081
0,0,0,4046081
0,0,0,4046081
0,0,0,4056081
0,0,0,4056081
0,0,0,4056081
0,0,0,4056081
0,0,0,4056081
0,0,0,4056081
0,0,0,4056081
0,0,0,4066081
0,0,0,4066081
0,0,0,4066081
0,0,0,4066081
0,0,0,4066081
0,0,0,4066081
0,0,0,4076081
0,0,0,4076081
0,0,0,4076081
0,0,0,4076081
0,0,0,4076081
0,0,0,4076081
0,0,0,4076081
0,0,0,4086081
0,0,0,4086081
0,0,0,4086081
0,0,0,4086081
0,0,0,4086081
0,0,0,4086081
0,0,0,4086081
0,0,0,4096080
0,0,0,4096316
0,0,0,4097328
0,0,0,4098312
0,0,0,4099309
0,0,0,4100306
0,0,0,4101237
0,0,0,4101237
0,0,0,4102237
0,0,0,4103235
0,0,0,4104235
0,0,0,4104235
0,0,0,4106227
0,0,0,4107224
0,0,0,4109219
0,0,0,4110216
0,0,0,4112210
0,0,0,4113208
0,0,0,4115202
0,0,0,4116200
0,0,0,4118230
0,0,0,4119227
0,0,0,4121228
0,0,0,4122222
0,0,0,4124213
0,0,0,4125211
0,0,0,4127205
0,0,0,4128203
0,0,0,4130198
0,0,0,4131896
0,0,0,4132926
0,0,0,4134891
0,0,0,4135889
0,0,0,4137917
0,0,0,4138882
0,0,0,4140876
0,0,0,4142493
0,0,0,4143899
0,0,0,4144900
0,0,0,4146894
0,0,0,4147892
0,0,0,4149887
0,0,0,4150884
0,0,0,4152878
0,0,0,4153530
0,0,0,4155706
0,0,0,4156704
0,0,0,4158698
0,0,0,4159695
0,0,0,4161490
0,0,0,4163484
0,0,0,4164738
0,0,0,4165735
0,0,0,4167730
0,0,0,4168727
0,0,0,4170722
0,0,0,4172489
0,0,0,4173486
0,0,0,4175481
0,0,0,4176478
0,0,0,4178473
0,0,0,4179470
0,0,0,4181465
0,0,0,4191679
0,0,0,4191679
0,0,0,4191679
0,0,0,4191679
0,0,0,4191679
0,0,0,4191679
0,0,0,4191679
0,0,0,4201643
0,0,0,4201643
0,0,0,4201643
0,0,0,4201643
0,0,0,4201643
0,0,0,4201643
0,0,0,4201643
0,0,0,4211675
0,0,0,4211675
0,0,0,4211675
0,0,0,4211675
0,0,0,4211675
0,0,0,4211675
0,0,0,4221675
0,0,0,4221675
0,0,0,4221675
0,0,0,4221675
0,0,0,4221675
0,0,0,4221675
0,0,0,4221675
0,0,-36,4231643
0,0,0,4231643
0,0,0,4231643
0,0,0,4231643
0,0,0,4231643
0,0,0,4231643
0,0,0,4231643
0,0,0,4241675
0,0,0,4241675
0,0,0,4241675
0,0,0,4241675
0,0,0,4241675
0,0,0,4241675
0,0,0,4251676
0,0,0,4251676
0,0,0,4251676
0,0,0,4251676
0,0,0,4251676
0,0,0,4251676
0,0,0,4251676
0,0,0,4261643
0,0,0,4262891
0,0,0,4263896
0,0,0,4264898
0,0,0,4264898
0,0,0,4265893
0,0,0,4267041
0,0,0,4267489
0,0,0,4268723
0,0,0,4268723
0,0,0,4270013
0,0,0,4270643
0,0,0,4270643
0,0,0,4272640
0,0,0,4273637
0,0,0,4275632
0,0,0,4276630
2,0,0,4278624
6,0,0,4279621
20,0,0,4281616
30,0,0,4282869
57,0,0,4284865
71,0,0,4285861
104,0,0,4287856
120,0,0,4288932
157,0,0,4290664
178,0,0,4291662
219,0,0,4293656
241,0,0,4294653
290,0,0,4296649
319,0,0,4297646
378,0,0,4299648
411,0,0,4300651
481,0,0,4302632
518,0,0,4303630
591,0,5,4305625
630,0,13,4306622
706,0,42,4308616
745,0,61,4309618
823,0,112,4311608
860,0,143,4312613
935,0,215,4314600
972,0,256,4315598
1024,0,350,4317593
1024,0,400,4318590
1024,0,500,4320614
1024,0,550,4321583
1024,0,650,4323576
1024,0,700,4324574
1024,0,800,4326568
1024,0,850,4327566
1024,0,950,4329719
1024,0,1000,4330730
1024,0,1100,4332717
1024,0,1150,4333718
1024,0,1250,4335703
1024,0,1300,4336701
1024,0,1400,4338701
1024,0,1450,4339693
1024,0,1550,4341685
1024,0,1600,4342683
1024,0,1700,4344715
1024,0,1750,4345676
1024,0,1850,4347670
1024,0,1900,4348668
1024,0,2000,4350663
1024,0,2050,4351660
1024,0,2150,4353655
1024,0,2200,4354658
1024,0,2300,4356647
1024,0,2350,4357644
1024,0,2450,4359638
1024,0,2500,4360635
1024,0,2600,4362630
1024,0,2650,4363627
1024,0,2750,4365622
1024,0,2800,4366655
1024,0,2900,4368650
1024,0,2950,4369641
1024,0,3050,4371613
1024,0,3100,4372606
1024,0,3200,4374598
1024,0,3250,4375595
1024,0,3350,4377629
1024,0,3400,4378588
1024,0,3500,4380614
1024,0,3550,4381579
1024,0,3650,4383574
1024,0,3700,4384571
1024,0,3800,4386566
1024,0,3850,4387564
1024,0,3950,4389591
1024,0,4450,4399807
1024,0,4550,4399807
1024,0,4550,4399807
1024,0,4600,4399807
1024,0,4650,4399807
1024,0,4700,4399807
1024,0,4750,4399807
1024,0,5000,4409776
1024,0,5050,4409776
1024,0,5100,4409776
1024,0,5100,4409776
1024,0,5150,4409776
1024,0,5200,4409776
1024,0,5450,4419809
1024,0,5550,4419809
1024,0,5600,4419809
1024,0,5650,4419809
1024,0,5650,4419809
1024,0,5700,4419809
1024,0,5750,4419809
1024,0,5950,4429776
1024,0,6000,4429776
1024,0,6050,4429776
1024,0,6100,4429776
1024,0,6150,4429776
1024,0,6150,4429776
1024,0,6200,4429776
1024,0,6450,4439777
1024,0,6500,4439777
1024,0,6550,4439777
1024,0,6600,4439777
1024,0,6650,4439777
1024,0,6700,4439777
1024,0,7000,4449812
1024,0,7050,4449812
1024,0,7100,4449812
1024,0,7100,4449812
1024,0,7150,4449812
1024,0,7200,4449812
1024,0,7250,4449812
1024,0,7500,4459776
1024,0,7550,4459776
1024,0,7600,4459776
1024,0,7650,4459776
1024,0,7700,4459776
1024,0,7750,4459776
1024,0,7800,4459776
1024,0,7950,4469775
1024,0,7950,4469775
1024,0,8000,4469775
1024,0,8050,4469775
1024,0,8100,4469775
1024,0,8100,4469775
1024,0,8450,4479808
1024,0,8550,4479808
1024,0,8600,4479808
1024,0,8650,4479808
1024,0,8650,4479808
1024,0,8700,4479808
1024,0,8750,4479808
1024,0,8950,4489776
1024,0,9000,4489776
1024,0,9050,4489776
1024,0,9100,4489776
1024,0,9150,4489776
1024,0,9150,4489776
1024,0,9200,4489776
1024,0,9450,4499808
1024,0,9500,4499808
1024,0,9550,4499808
1024,0,9600,4499808
1024,0,9650,4499808
1024,0,9650,4499808
1024,0,10000,4509808
1024,0,10050,4509808
1024,0,10050,4509808
1024,0,10100,4509808
1024,0,10150,4509808
1024,0,10200,4509808
1024,0,10200,4509808
1024,0,10450,4519776
1024,0,10550,4519776
1024,0,10550,4519776
1024,0,10600,4519776
1024,0,10650,4519776
1024,0,10650,4519776
1024,0,10700,4519776
1024,0,11000,4529776
1024,0,11050,4529776
1024,0,11050,4529776
1024,0,11100,4529776
1024,0,11150,4529776
1024,0,11150,4529776
1024,0,11450,4539811
1024,0,11500,4539811
1024,0,11550,4539811
1024,0,11600,4539811
1024,0,11650,4539811
1024,0,11650,4539811
1024,0,11700,4539811
1024,0,11950,4549775
1024,0,12050,4549775
1024,0,12050,4549775
1024,0,12100,4549775
1024,0,12150,4549775
1024,0,12200,4549775
1024,0,12200,4549775
1024,0,12450,4559776
1024,0,12500,4559776
1024,0,12550,4559776
1024,0,12600,4559776
1024,0,12650,4559776
1024,0,12650,4559776
1024,0,12950,4569808
1024,0,13000,4569808
1024,0,13050,4569808
1024,0,13100,4569808
1024,0,13150,4569808
1024,0,13150,4569808
1024,0,13200,4569808
1024,0,13450,4579775
1024,0,13500,4579775
1024,0,13550,4579775
1024,0,13600,4579775
1024,0,13650,4579775
1024,0,13700,4579775
1024,0,13750,4579775
1024,0,13950,4589775
1024,0,13950,4589775
1024,0,14000,4589775
1024,0,14050,4589775
1024,0,14100,4589775
1024,0,14100,4589775
1024,0,14450,4599775
1024,0,14500,4601509
1024,0,14550,4601755
1024,0,14600,4602754
1024,0,14650,4603751
1024,0,14650,4604750
1024,0,14700,4604750
1024,0,14750,4605746
1024,0,14750,4606744
1024,0,14800,4606744
1024,0,14850,4607741
1024,0,14850,4608956
1024,0,14900,4609540
1024,0,14950,4609732
1024,0,15000,4611729
1024,0,15050,4612726
1024,0,15150,4614736
1024,0,15200,4615718
1024,0,15300,4617713
1024,0,15350,4618915
1024,0,15450,4620909
1024,0,15500,4621907
1024,0,15600,4623901
1024,0,15650,4624898
1024,0,15750,4626893
1024,0,15800,4627891
1024,0,15900,4629885
1024,0,15950,4630882
1024,0,16000,4632877
1024,0,16000,4633875
1024,0,16000,4635869
1024,0,16000,4636867
1024,0,16000,4638872
1024,0,16000,4639859
1024,0,16000,4641853
1024,0,16000,4642851
1024,0,16000,4644845
1024,0,16000,4645843
1024,0,16000,4647837
1024,0,16000,4648835
1024,0,16000,4650829
1024,0,16000,4651826
1024,0,16000,4653820
1024,0,16000,4654818
1024,0,16000,4656813
1024,0,16000,4657811
1024,0,16000,4659805
1024,0,16000,4660803
1024,0,16000,4662798
1024,0,16000,4663795
1024,0,16000,4665789
1001,0,16000,4666787
956,0,16000,4668780
956,0,16000,4669778
894,0,16000,4671773
874,0,16000,4673411
835,0,16000,4674715
817,0,16000,4675712
780,0,16000,4677706
761,0,16000,4678703
727,0,16000,4680698
571,0,16000,4690853
557,0,16000,4690853
544,0,16000,4690853
530,0,16000,4690853
518,0,16000,4690853
505,0,16000,4690853
491,0,16000,4690853
442,0,16000,4700817
432,0,16000,4700817
419,0,16000,4700817
409,0,16000,4700817
397,0,16000,4700817
387,0,16000,4700817
335,0,16000,4710817
327,0,16000,4710817
317,0,16000,4710817
309,0,16000,4710817
299,0,16000,4710817
299,0,16000,4710817
282,0,16000,4710817
249,0,16000,4720817
241,0,16000,4720817
231,0,16000,4720817
225,0,16000,4720817
217,0,16000,4720817
208,0,16000,4720817
202,0,16000,4720817
182,0,16000,4730818
167,0,16000,4730818
161,0,16000,4730818
161,0,16000,4730818
155,0,16000,4730818
149,0,16000,4730818
116,0,16000,4740819
110,0,16000,4740819
106,0,16000,4740819
100,0,16000,4740819
100,0,16000,4740819
96,0,16000,4740819
90,0,16000,4740819
73,0,16000,4750817
67,0,16000,4750817
63,0,16000,4750817
61,0,16000,4750817
57,0,16000,4750817
55,0,16000,4750817
51,0,16000,4750817
45,0,16000,4760818
40,0,16000,4762037
40,0,16000,4763033
38,0,16000,4764030
36,0,16000,4764030
34,0,16000,4765027
32,0,16000,4766024
32,0,16000,4767022
30,0,16000,4768019
28,0,16000,4769033
28,0,16000,4769657
26,0,16000,4770036
26,0,16000,4770779
24,0,16000,4771784
22,0,16000,4773774
20,0,16000,4774771
18,0,16000,4776766
18,0,16000,4777763
16,0,16000,4779757
16,0,16000,4780755
14,0,16000,4782750
12,0,16000,4783750
12,0,16000,4785747
12,0,16000,4786739
10,0,16000,4788734
8,0,16000,4789747
8,0,16000,4791726
8,0,16000,4792753
6,0,16000,4794751
6,0,16000,4795761
6,0,16000,4797743
6,0,16000,4798739
4,0,16000,4800750
4,0,16000,4801732
4,0,16000,4803726
4,0,16000,4804723
4,0,16000,4806720
2,0,16000,4807718
2,0,16000,4809710
2,0,16000,4810717
2,0,16000,4812703
2,0,16000,4813711
2,0,16000,4815709
2,0,16000,4816692
2,0,16000,4818688
2,0,16000,4819683
0,0,16000,4821692
0,0,16000,4822677
0,0,16000,4824671
0,0,16000,4825676
0,0,16000,4827663
0,0,16000,4828660
0,0,16000,4830655
0,0,16000,4831652
0,0,16000,4833347
0,0,16000,4835342
0,0,16000,4836339
0,0,16000,4838337
0,0,16000,4839351
0,0,16000,4841326
0,0,16000,4842323
0,0,16000,4844318
0,0,16000,4845315
0,0,16000,4847309
0,0,16000,4848307
0,0,16000,4850312
0,0,16000,4851298
0,0,16000,4853293
0,0,16000,4854299
0,0,16000,4856286
0,0,16000,4857288
0,0,16000,4859277
0,0,16000,4860290
0,0,16000,4862278
0,0,16000,4863266
0,0,16000,4865275
0,0,16000,4866259
0,0,16000,4868262
0,0,16000,4869259
0,0,16000,4871253
0,0,16000,4872255
0,0,16000,4874246
0,0,16000,4875247
0,0,16000,4877237
0,0,16000,4878896
0,0,16000,4879896
0,0,16000,4881967
0,0,-36,4882958
0,0,0,4884953
0,0,0,4885949
0,0,0,4887945
0,0,0,4888952
0,0,0,4890367
0,0,0,4900404
0,0,0,4900404
0,0,0,4900404
0,0,0,4900404
0,0,0,4900404
0,0,0,4900404
0,0,0,4910368
0,0,0,4910368
0,0,0,4910368
0,0,0,4910368
0,0,0,4910368
0,0,0,4910368
0,0,0,4910368
0,0,0,4920367
0,0,0,4920367
0,0,0,4920367
0,0,0,4920367
0,0,0,4920367
0,0,0,4920367
0,0,0,4920367
0,0,0,4930368
0,0,0,4930368
0,0,0,4930368
0,0,0,4930368
0,0,0,4930368
0,0,0,4930368
0,0,0,4940368
0,0,0,4940368
0,0,0,4940368
0,0,0,4940368
0,0,0,4940368
0,0,0,4940368
0,0,0,4940368
0,0,0,4950368
0,0,0,4950368
0,0,0,4950368
0,0,0,4950368
0,0,0,4950368
0,0,0,4950368
0,0,0,4950368
0,0,0,4960368
0,0,0,4960368
0,0,0,4960368
0,0,0,4960368
0,0,0,4960368
0,0,0,4960368
0,0,0,4970367
0,0,0,4970367
0,0,0,4970367
0,0,0,4970367
0,0,0,4970367
0,0,0,4970367
0,0,0,4970367
0,0,0,4980368
0,0,0,4980368
0,0,0,4980368
0,0,0,4980368
0,0,0,4980368
0,0,0,4980368
0,0,0,4980368
0,0,0,4990367
0,0,0,4990367
0,0,0,4990367
0,0,0,4990367
0,0,0,4990367
0,0,0,4990367
0,0,0,5000400
0,0,0,5000400
0,0,0,5000400
0,0,0,5000400
0,0,0,5000400
0,0,0,5000400
0,0,0,5000400
0,0,0,5010368
0,0,0,5010368
0,0,0,5010368
0,0,0,5010368
0,0,0,5010368
0,0,0,5010368
0,0,0,5010368
0,0,0,5020367
0,0,0,5020367
0,0,0,5020367
0,0,0,5020367
0,0,0,5020367
0,0,0,5020367
0,0,0,5030399
0,0,0,5030399
0,0,0,5030399
0,0,0,5030399
0,0,0,5030399
0,0,0,5030399
0,0,0,5030399
0,0,0,5040367
0,0,0,5040367
0,0,0,5040367
0,0,0,5040367
0,0,0,5040367
0,0,0,5040367
0,0,0,5040367
0,0,0,5050367
0,0,0,5050367
0,0,0,5050367
0,0,0,5050367
0,0,0,5050367
0,0,0,5050367
0,0,0,5060367
0,0,0,5060367
0,0,0,5060367
0,0,0,5060367
0,0,0,5060367
0,0,0,5060367
0,0,0,5060367
0,0,0,5070367
0,0,0,5070367
0,0,0,5070367
0,0,0,5070367
0,0,0,5070367
0,0,0,5070367
0,0,0,5070367
0,0,0,5080367
0,0,0,5080367
0,0,0,5080367
0,0,0,5080367
0,0,0,5080367
0,0,0,5080367
0,0,0,5090367
0,0,0,5090367
0,0,0,5090367
0,0,0,5090367
0,0,0,5090367
0,0,0,5090367
0,0,0,5090367
0,0,0,5100367
0,0,0,5101509
0,0,0,5102509
0,0,0,5102509
0,0,0,5103505
0,0,0,5104503
0,0,0,5105503
0,0,0,5106504
0,0,0,5107500
0,0,0,5108940
0,0,0,5109284
0,0,0,5109284
0,0,0,5110283
0,0,0,5111283
0,0,0,5112278
0,0,0,5114273
0,0,0,5115270
0,0,0,5117264
0,0,0,5118839
0,0,0,5119834
0,0,0,5121828
0,0,0,5122711
0,0,0,5124839
0,0,0,5125836
0,0,0,5127831
0,0,0,5128837
0,0,0,5130823
0,0,0,5131820
0,0,0,5133815
0,0,0,5134812
0,0,0,5136807
0,0,0,5137818
0,0,0,5139798
0,0,0,5140795
0,0,0,5142489
0,0,0,5144483
0,0,0,5145481
0,0,0,5147475
0,0,0,5148487
0,0,0,5150467
0,0,0,5151465
0,0,0,5153460
0,0,0,5154472
0,0,0,5156451
0,0,0,5157046
0,0,0,5159477
0,0,0,5160474
0,0,0,5162469
0,0,0,5163475
0,0,0,5165461
0,0,0,5166459
0,0,0,5168453
0,0,0,5169450
0,0,0,5171444
0,0,0,5172444
0,0,0,5174437
0,0,0,5175434
0,0,0,5177428
0,0,0,5178427
0,0,0,5180458
0,0,0,5190718
0,0,0,5190718
0,0,0,5190718
0,0,0,5190718
0,0,0,5190718
0,0,0,5190718
0,0,0,5190718
0,0,0,5200684
0,0,0,5200684
0,0,0,5200684
0,0,0,5200684
0,0,0,5200684
0,0,0,5200684
0,0,0,5200684
0,0,0,5210684
0,0,0,5210684
0,0,0,5210684
0,0,0,5210684
0,0,0,5210684
0,0,0,5210684
0,0,0,5220684
0,0,0,5220684
0,0,0,5220684
0,0,0,5220684
0,0,0,5220684
0,0,0,5220684
0,0,0,5220684
0,0,0,5230683
0,0,0,5230683
0,0,0,5230683
0,0,0,5230683
0,0,0,5230683
0,0,0,5230683
0,0,0,5230683
0,0,0,5240684
0,0,0,5240684
0,0,0,5240684
0,0,0,5240684
0,0,0,5240684
0,0,0,5240684
0,0,0,5250684
0,0,0,5250684
0,0,0,5250684
0,0,0,5250684
0,0,0,5250684
0,0,0,5250684
0,0,0,5250684
0,0,0,5260684
0,0,0,5261920
0,0,0,5262917
0,0,0,5262917
0,0,0,5263912
0,0,0,5264911
0,0,0,5264911
0,0,0,5266344
0,0,0,5267165
0,0,0,5267165
0,0,0,5268165
0,0,0,5268165
0,0,0,5270221
0,0,0,5271221
0,0,0,5273215
0,0,0,5274214
0,0,0,5276207
0,0,0,5277205
0,0,0,5279200
0,0,0,5280196
0,0,0,5282191
0,0,0,5283189
0,0,0,5285183
0,0,0,5286183
0,0,0,5287982
0,0,0,5289187
0,0,0,5290721
0,0,0,5292718
0,0,0,5293716
0,0,0,5295711
0,0,0,5296708
0,0,0,5298702
0,0,0,5299700
0,0,0,5301695
0,0,0,5302692
0,0,0,5304686
0,0,0,5305684
0,0,0,5307679
0,0,0,5308676
0,0,0,5310670
0,0,0,5311668
0,0,0,5313663
0,0,0,5314660
0,0,0,5316654
0,0,0,5318318
0,0,0,5319315
0,0,0,5320510
0,0,0,5322505
0,0,0,5324271
0,0,0,5325269
0,0,0,5327263
0,0,0,5328911
0,0,0,5329908
0,0,0,5331550
0,0,0,5332547
0,0,0,5334542
0,0,0,5335539
0,0,0,5337533
0,0,0,5338531
0,0,0,5340526
0,0,0,5341524
0,0,0,5343518
0,0,0,5344516
0,0,0,5346510
0,0,0,5347508
0,0,0,5349502
0,0,0,5350501
0,0,0,5352494
0,0,0,5354488
0,0,0,5355486
0,0,0,5357480
0,0,0,5358478
0,0,0,5360473
6,0,0,5361640
14,0,0,5362639
40,0,0,5364489
73,0,0,5366483
92,0,0,5367481
135,0,0,5369476
165,0,0,5370473
239,0,0,5372467
286,0,0,5373465
387,0,0,5375459
442,0,0,5376456
567,0,0,5378451
636,0,6,5379448
876,0,66,5381443
876,0,102,5382440
1024,0,147,5384473
1024,0,197,5385433
1024,0,297,5387427
1024,0,347,5388425
1024,0,447,5390419
1024,0,497,5391416
1024,0,1047,5401600
1024,0,1147,5401600
1024,0,1197,5401600
1024,0,1247,5401600
1024,0,1247,5401600
1024,0,1297,5401600
1024,0,1347,5401600
1024,0,1547,5411555
1024,0,1597,5411555
1024,0,1647,5411555
1024,0,1697,5411555
1024,0,1747,5411555
1024,0,1797,5411555
1024,0,2047,5421554
1024,0,2097,5421554
1024,0,2147,5421554
1024,0,2197,5421554
1024,0,2247,5421554
1024,0,2297,5421554
1024,0,2347,5421554
1024,0,2547,5431560
1024,0,2597,5431560
1024,0,2647,5431560
1024,0,2697,5431560
1024,0,2747,5431560
1024,0,2797,5431560
1024,0,2847,5431560
1024,0,3047,5441557
1024,0,3097,5441557
1024,0,3147,5441557
1024,0,3197,5441557
1024,0,3247,5441557
1024,0,3247,5441557
1024,0,3547,5451588
1024,0,3597,5451588
1024,0,3597,5451588
1024,0,3647,5451588
1024,0,3697,5451588
1024,0,3747,5451588
1024,0,3797,5451588
1024,0,4047,5461555
1024,0,4097,5461555
1024,0,4097,5461555
1024,0,4147,5461555
1024,0,4197,5461555
1024,0,4247,5461555
1024,0,4247,5461555
1024,0,4497,5471554
1024,0,4597,5471554
1024,0,4647,5471554
1024,0,4697,5471554
1024,0,4747,5471554
1024,0,4797,5471554
1024,0,5047,5481555
1024,0,5097,5481555
1024,0,5147,5481555
1024,0,5197,5481555
1024,0,5247,5481555
1024,0,5247,5481555
1024,0,5297,5481555
1024,0,5497,5491557
1024,0,5597,5491749
1024,0,5597,5493750
1024,0,5647,5493750
1024,0,5697,5494740
1024,0,5747,5496514
1024,0,5797,5497216
1024,0,5847,5497613
1024,0,5847,5498569
1024,0,5897,5499569
1024,0,5947,5499569
1024,0,5997,5500572
1024,0,6047,5501569
1024,0,6047,5502987
1024,0,6097,5503584
1024,0,6197,5505577
1024,0,6247,5506575
1024,0,6347,5508567
1024,0,6897,5518644
1024,0,6997,5518644
1024,0,6997,5518644
1024,0,7047,5518644
1024,0,7097,5518644
1024,0,7147,5518644
1024,0,7197,5518644
1024,0,7397,5528645
1024,0,7447,5528645
1024,0,7447,5528645
1024,0,7497,5528645
1024,0,7547,5528645
1024,0,7597,5528645
1024,0,7897,5538644
1024,0,7947,5538644
1024,0,7997,5538644
1024,0,8047,5538644
1024,0,8097,5538644
1024,0,8147,5538644
1024,0,8197,5538644
1024,0,8347,5548644
1024,0,8397,5548644
1024,0,8447,5548644
1024,0,8497,5548644
1024,0,8497,5548644
1024,0,8547,5548644
1024,0,8597,5548644
1024,0,8847,5558677
1024,0,8947,5558677
1024,0,8947,5558677
1024,0,8997,5558677
1024,0,9047,5558677
1024,0,9097,5558677
1024,0,9397,5568645
1024,0,9447,5568645
1024,0,9497,5568645
1024,0,9547,5568645
1024,0,9547,5568645
1024,0,9597,5568645
1024,0,9647,5568645
1024,0,9897,5578644
1024,0,9947,5578644
1024,0,9947,5578644
1024,0,9997,5578644
1024,0,10047,5578644
1024,0,10047,5578644
1024,0,10097,5578644
1024,0,10347,5588645
1024,0,10447,5588645
1024,0,10447,5588645
1024,0,10497,5588645
1024,0,10547,5588645
1024,0,10597,5588645
1024,0,10897,5598644
1024,0,10897,5599902
1024,0,10947,5600894
1024,0,10997,5600894
1024,0,11047,5601891
1024,0,11047,5602898
1024,0,11097,5602898
1024,0,11147,5603886
1024,0,11147,5604892
1024,0,11197,5604892
1024,0,11247,5605880
1024,0,11247,5606885
1024,0,11297,5607875
1024,0,11347,5608873
1024,0,11447,5610867
1024,0,11497,5611865
1024,0,11597,5613859
1024,0,11647,5614865
1024,0,11747,5616851
1024,0,11797,5617849
1024,0,11897,5619489
1024,0,11997,5621495
1024,0,12097,5622486
1024,0,12147,5624475
1024,0,12197,5625473
1024,0,12297,5627467
1024,0,12347,5628464
1024,0,12397,5630459
1024,0,12447,5631457
1024,0,12547,5633452
1024,0,12597,5634449
1024,0,12697,5636443
1024,0,12747,5637441
1024,0,12847,5639434
1024,0,12897,5640432
1024,0,12997,5642458
1024,0,13047,5643122
1024,0,13147,5645312
1024,0,13197,5646309
1024,0,13297,5648304
1024,0,13347,5649302
1024,0,13447,5651296
1024,0,13497,5652293
1024,0,13597,5654288
1024,0,13647,5655285
1024,0,13747,5657280
1024,0,13797,5658277
1024,0,13897,5660272
1024,0,13947,5661269
1024,0,14047,5663264
1024,0,14097,5664261
1024,0,14197,5666256
1024,0,14247,5667065
1024,0,14347,5669288
1024,0,14397,5670285
1024,0,14497,5672280
1024,0,14547,5673279
1024,0,14647,5675272
1024,0,14697,5676269
1024,0,14797,5678264
1024,0,14847,5679261
1024,0,14947,5681256
1024,0,14997,5682253
1024,0,15097,5684248
1024,0,15147,5685245
1024,0,15247,5687240
1024,0,15297,5688240
1024,0,15397,5690232
1024,0,15447,5691229
1024,0,15547,5693248
1024,0,15597,5694249
1024,0,15697,5696239
1024,0,15747,5697237
1024,0,15847,5699231
1024,0,15897,5700236
1024,0,15997,5702223
1024,0,16000,5703221
1024,0,16000,5705215
1024,0,16000,5715461
1024,0,16000,5715461
1024,0,16000,5715461
1024,0,16000,5715461
1024,0,16000,5715461
1024,0,16000,5715461
1024,0,16000,5715461
1024,0,16000,5725426
1024,0,16000,5725426
1024,0,16000,5725426
1024,0,16000,5725426
1024,0,16000,5725426
1024,0,16000,5725426
1024,0,16000,5735424
1024,0,16000,5735424
1024,0,16000,5735424
1024,0,16000,5735424
1024,0,16000,5735424
1024,0,16000,5735424
1024,0,16000,5735424
1024,0,16000,5745424
1024,0,16000,5745424
1024,0,16000,5745424
1024,0,16000,5745424
1024,0,16000,5745424
1024,0,16000,5745424
1024,0,16000,5745424
1024,0,16000,5755424
1024,0,16000,5755424
1024,0,16000,5755424
1024,0,16000,5755424
1024,0,16000,5755424
1024,0,16000,5755424
1024,0,16000,5765456
1024,0,16000,5766733
1024,0,16000,5767727
1024,0,16000,5767727
1024,0,16000,5769506
1024,0,16000,5770158
1024,0,16000,5770887
1024,0,16000,5771489
1024,0,16000,5771694
1024,0,16000,5772694
1024,0,16000,5772694
1024,0,16000,5773691
1024,0,16000,5774688
1024,0,16000,5775686
1024,0,16000,5776683
1024,0,16000,5778677
1024,0,16000,5779675
1024,0,16000,5781913
1024,0,16000,5782911
1024,0,16000,5784625
1024,0,16000,5785622
1024,0,16000,5787617
1024,0,16000,5788620
1024,0,16000,5790609
1024,0,16000,5791607
1024,0,16000,5793601
1024,0,16000,5794792
1024,0,16000,5796789
976,0,16000,5798489
954,0,16000,5799486
909,0,16000,5801479
909,0,16000,5802477
843,0,16000,5804471
843,0,16000,5805469
802,0,16000,5807463
784,0,16000,5808461
745,0,16000,5810456
727,0,16000,5811454
692,0,16000,5813448
673,0,16000,5814446
641,0,16000,5816450
624,0,16000,5817439
593,0,16000,5819432
577,0,16000,5820429
548,0,16000,5822441
518,0,16000,5823675
505,0,16000,5824972
479,0,16000,5826970
464,0,16000,5827967
440,0,16000,5829962
440,0,16000,5830614
417,0,16000,5832179
395,0,16000,5833990
374,0,16000,5835986
364,0,16000,5836984
342,0,16000,5838978
331,0,16000,5839982
311,0,16000,5841980
301,0,16000,5842968
284,0,16000,5844999
274,0,16000,5845962
258,0,16000,5847954
249,0,16000,5848952
233,0,16000,5850946
227,0,16000,5851944
210,0,16000,5853940
204,0,16000,5854950
188,0,16000,5856935
184,0,16000,5857928
169,0,16000,5859922
163,0,16000,5860920
153,0,16000,5862915
147,0,16000,5863913
135,0,16000,5865907
131,0,16000,5866904
118,0,16000,5868898
114,0,16000,5869907
104,0,16000,5871890
100,0,16000,5872891
92,0,16000,5874884
88,0,16000,5875881
77,0,16000,5877884
75,0,16000,5878873
67,0,16000,5880867
63,0,16000,5881865
57,0,16000,5883859
57,0,16000,5884872
49,0,16000,5886850
47,0,16000,5887850
43,0,16000,5889851
24,0,16000,5900103
24,0,16000,5900103
22,0,16000,5900103
22,0,16000,5900103
20,0,16000,5900103
20,0,16000,5900103
18,0,16000,5900103
14,0,16000,5910071
14,0,16000,5910071
12,0,16000,5910071
12,0,16000,5910071
12,0,16000,5910071
12,0,16000,5910071
10,0,16000,5910071
8,0,16000,5920070
8,0,16000,5920070
8,0,16000,5920070
6,0,16000,5920070
6,0,16000,5920070
6,0,16000,5920070
4,0,16000,5930070
4,0,16000,5930070
4,0,16000,5930070
4,0,16000,5930070
4,0,16000,5930070
4,0,16000,5930070
4,0,16000,5930070
2,0,16000,5940112
2,0,16000,5940112
2,0,16000,5940112
2,0,16000,5940112
2,0,16000,5940112
2,0,16000,5940112
2,0,16000,5940112
2,0,16000,5950071
2,0,16000,5950071
2,0,16000,5950071
0,0,-36,5950071
0,0,0,5950071
0,0,0,5950071
0,2,0,5960070
0,2,0,5960070
0,2,0,5960070
0,2,0,5960070
0,2,0,5960070
0,2,0,5960070
0,2,0,5960070
0,0,0,5970069
0,0,0,5970069
0,0,0,5970069
0,0,0,5970069
0,0,0,5970069
0,0,0,5970069
0,0,0,5970069
0,0,0,5980070
0,0,0,5980070
0,0,0,5980070
0,0,0,5980070
0,0,0,5980070
0,0,0,5980070
0,0,0,5990106
0,0,0,5990106
0,0,0,5990106
0,0,0,5990106
0,0,0,5990106
0,0,0,5990106
0,0,0,5990106
0,0,0,6000071
0,0,0,6000071
0,0,0,6000071
0,0,0,6000071
0,0,0,6000071
0,0,0,6000071
0,0,0,6000071
0,0,0,6010071
0,0,0,6010071
0,0,0,6010071
0,0,0,6010071
0,0,0,6010071
0,0,0,6010071
0,0,0,6020107
0,0,0,6020107
0,0,0,6020107
0,0,0,6020107
0,0,0,6020107
0,0,0,6020107
0,0,0,6020107
0,0,0,6030070
0,0,0,6030070
0,0,0,6030070
0,0,0,6030070
0,0,0,6030070
0,0,0,6030070
0,0,0,6030070
0,0,0,6040073
0,0,0,6040073
0,0,0,6040073
0,0,0,6040073
0,0,0,6040073
0,0,0,6040073
0,0,0,6050102
0,0,0,6050102
0,0,0,6050102
0,0,0,6050102
0,0,0,6050102
0,0,0,6050102
0,0,0,6050102
0,0,0,6060111
0,0,0,6060111
0,0,0,6060111
0,0,0,6060111
0,0,0,6060111
0,0,0,6060111
0,0,0,6060111
0,0,0,6070070
0,0,0,6070070
0,0,0,6070070
0,0,0,6070070
0,0,0,6070070
0,0,0,6070070
0,0,0,6080070
0,0,0,6080070
0,0,0,6080070
0,0,0,6080070
0,0,0,6080070
0,0,0,6080070
0,0,0,6080070
0,0,0,6090071
0,0,0,6090071
0,0,0,6090071
0,0,0,6090071
0,0,0,6090071
0,0,0,6090071
0,0,0,6090071
0,0,0,6100074
0,0,0,6101415
0,0,0,6102401
0,0,0,6103395
0,0,0,6104391
0,0,0,6105390
0,0,0,6106388
0,0,0,6107385
0,0,0,6107385
0,0,0,6108898
0,0,0,6109092
0,0,0,6110077
0,0,0,6110077
0,0,0,6111589
0,0,0,6113136
0,0,0,6114133
0,0,0,6116128
0,0,0,6117125
0,2,0,6119119
0,2,0,6120117
0,4,0,6122111
0,6,0,6123109
0,8,0,6125104
0,10,0,6126101
0,12,0,6128097
0,14,0,6129104
0,14,0,6131088
0,18,0,6132085
0,22,0,6134080
0,24,0,6135077
0,28,0,6137071
0,30,0,6138069
0,34,0,6140082
0,36,0,6141075
0,45,0,6143056
0,47,0,6144053
0,55,0,6146047
0,61,0,6147792
0,65,0,6148826
0,73,0,6150783
0,77,0,6151781
0,86,0,6153776
0,86,0,6154776
0,98,0,6156769
0,98,0,6157766
0,106,0,6159760
0,108,0,6160762
0,114,0,6162752
0,118,0,6163750
0,124,0,6165743
0,124,0,6166741
0,133,0,6168775
0,133,0,6169770
0,137,0,6171760
0,137,0,6172726
0,143,0,6174722
0,143,0,6175730
0,145,0,6177711
0,147,0,6178709
0,149,0,6180704
0,153,0,6181737
0,501,0,6192020
0,557,0,6192020
0,616,0,6192020
0,675,0,6192020
0,737,0,6192020
0,798,0,6192020
0,798,0,6192020
0,1024,0,6201982
0,1024,0,6201982
0,1024,0,6201982
0,1024,0,6201982
0,1024,-36,6201982
0,1024,0,6201982
0,1024,0,6211982
0,1024,0,6211982
0,1024,0,6211982
0,1024,0,6211982
0,1024,0,6211982
0,1024,0,6211982
0,1024,0,6211982
0,1024,0,6222019
0,1024,0,6222019
0,1024,0,6222019
0,1024,0,6222019
0,1024,0,6222019
0,1024,0,6222019
0,1024,0,6222019
0,1024,0,6232020
0,1024,0,6232020
0,1024,0,6232020
0,1024,0,6232020
0,1024,0,6232020
0,1024,0,6232020
0,1024,0,6242016
0,1024,0,6242016
0,1024,0,6242016
0,1024,0,6242016
0,1024,0,6242016
0,1024,0,6242016
0,1024,0,6242016
0,1024,0,6251982
0,1024,0,6251982
0,1024,0,6251982
0,1024,0,6251982
0,1024,0,6251982
0,1024,0,6251982
0,1024,0,6262015
0,1024,0,6262423
0,1024,0,6264417
0,1024,0,6265414
0,1024,0,6266413
0,1024,0,6266413
0,1024,0,6267409
0,1024,0,6268408
0,1024,0,6269405
0,1024,0,6270401
0,1024,0,6271400
0,1024,0,6271400
0,1024,0,6272397
0,1024,0,6273399
0,1024,0,6274394
0,1024,0,6275388
0,1024,0,6276385
0,1024,0,6278416
0,1024,0,6279413
0,1024,0,6281372
0,1024,0,6282421
0,1024,0,6284418
0,1024,0,6285415
0,1024,0,6287447
0,1024,0,6288408
0,1024,0,6290407
0,1024,0,6291401
0,1024,0,6293395
0,1024,0,6294392
0,1024,0,6296386
0,1024,0,6297206
0,1024,0,6299392
0,1024,0,6300389
0,1024,0,6302384
0,1024,0,6303394
0,1024,0,6305376
0,1024,0,6306860
0,1024,0,6307855
0,1024,0,6309663
0,1024,0,6311335
0,1024,0,6312338
0,1024,0,6314326
0,1024,0,6315324
0,1024,0,6317319
0,1024,0,6318316
0,1024,0,6320310
0,1024,0,6321974
0,1024,0,6322971
0,1024,0,6324670
0,1024,0,6325667
0,1024,0,6327671
0,1024,0,6328919
0,1024,0,6330904
0,1024,0,6331901
0,1024,0,6333321
0,1024,0,6335316
0,1024,0,6336538
0,1024,0,6337535
0,1024,0,6339529
0,1024,0,6340541
0,1024,0,6342327
0,1024,0,6343946
0,1024,0,6345940
0,1024,0,6347440
0,1024,0,6348494
0,1024,0,6350432
0,1024,0,6351469
0,1024,0,6353454
0,1024,0,6354423
0,1024,0,6356416
0,1024,0,6357413
0,1024,0,6359409
0,1024,0,6360406
0,1024,0,6362400
0,1024,0,6363398
0,1024,0,6365391
0,1024,0,6366390
0,1024,0,6368383
0,1024,0,6369382
0,1024,0,6371376
0,1024,0,6372374
0,1024,0,6374418
0,1024,0,6375428
0,1024,0,6377409
0,1024,0,6378407
0,1024,0,6380401
0,1024,0,6381399
0,1024,0,6383394
0,1024,0,6384391
0,1024,0,6386386
0,1024,0,6387383
0,1024,0,6389378
0,1024,0,6390375
0,1024,0,6400460
0,1024,0,6400460
0,1024,0,6400460
0,1024,0,6400460
0,1005,0,6400460
0,1005,0,6400460
0,919,0,6410461
0,878,0,6410461
0,856,0,6410461
0,837,0,6410461
0,819,0,6410461
0,819,0,6410461
0,798,0,6410461
0,724,0,6420461
0,690,0,6420461
0,671,0,6420461
0,655,0,6420461
0,655,0,6420461
0,638,0,6420461
0,622,0,6420461
0,561,0,6430462
0,546,0,6430462
0,520,0,6430462
0,505,0,6430462
0,505,0,6430462
0,493,0,6430462
0,428,0,6440482
0,405,0,6440482
0,393,0,6440482
0,382,0,6440482
0,372,0,6440482
0,372,0,6440482
0,362,0,6440482
0,321,0,6450461
0,311,0,6450461
0,292,0,6450461
0,284,0,6450461
0,284,0,6450461
0,274,0,6450461
0,266,0,6450461
0,231,0,6460463
0,217,0,6460463
0,208,0,6460463
0,208,0,6460463
0,202,0,6460463
0,194,0,6460463
0,161,0,6470494
0,147,0,6470494
0,147,0,6470494
0,137,0,6470494
0,131,0,6470494
0,131,0,6470494
0,124,0,6470494
0,104,0,6480495
0,98,0,6480495
0,94,0,6480495
0,88,0,6480495
0,83,0,6480495
0,79,0,6480495
0,75,0,6480495
0,61,0,6490463
0,55,0,6490463
0,55,0,6490463
0,53,0,6490463
0,51,0,6490463
0,51,0,6490463
0,36,0,6500499
0,34,0,6500499
2,32,0,6500499
2,32,0,6500499
2,30,0,6500499
4,28,0,6500499
4,26,0,6500499
8,22,0,6510462
10,20,0,6510462
10,18,0,6510462
12,16,0,6510462
12,16,0,6510462
14,16,0,6510462
14,16,0,6510462
18,14,0,6520462
18,12,0,6520462
18,12,0,6520462
20,12,0,6520462
22,12,0,6520462
22,10,0,6520462
30,8,0,6530463
30,8,0,6530463
32,6,0,6530463
32,6,0,6530463
34,6,0,6530463
36,6,0,6530463
36,6,0,6530463
43,4,0,6540465
45,4,0,6540465
45,4,0,6540465
47,4,0,6540465
47,4,0,6540465
49,2,0,6540465
49,2,0,6540465
51,2,0,6550497
51,2,0,6550497
53,2,0,6550497
53,2,0,6550497
53,2,0,6550497
55,2,0,6550497
57,0,0,6560462
59,0,0,6560462
61,0,0,6560462
61,0,0,6560462
63,0,0,6560462
63,0,0,6560462
63,0,0,6560462
67,0,0,6570460
67,0,0,6570460
67,0,0,6570460
69,0,0,6570460
69,0,0,6570460
69,0,0,6570460
71,0,0,6570460
73,0,0,6580462
73,0,0,6580462
75,0,0,6580462
75,0,0,6580462
75,0,0,6580462
77,0,0,6580462
88,0,0,6590463
92,0,0,6590463
96,0,0,6590463
96,0,0,6590463
98,0,0,6590463
100,0,0,6590463
100,0,0,6590463
108,0,0,6600461
110,0,0,6601784
112,0,0,6602775
114,0,0,6603771
116,0,0,6603771
116,0,0,6604768
116,0,0,6605766
118,0,0,6606764
120,0,0,6607763
120,0,0,6608759
122,0,0,6609759
124,0,0,6609759
124,0,0,6610754
124,0,0,6611751
124,0,0,6612752
126,0,0,6613752
126,0,0,6615747
126,8,0,6616742
129,38,0,6618740
131,63,0,6619737
131,122,0,6621730
133,157,0,6622740
133,229,0,6624728
135,270,0,6625721
137,352,0,6627727
137,393,0,6628712
139,485,0,6630706
139,538,0,6631704
141,663,0,6633698
141,737,0,6634695
143,888,0,6636688
143,974,0,6637687
143,1024,0,6639681
145,1024,0,6640684
147,1024,0,6642676
147,1024,0,6643671
147,1024,0,6645666
149,1024,0,6646857
151,1024,0,6648851
153,1024,0,6649850
155,1024,0,6651845
159,1024,0,6652842
167,1024,0,6654836
174,1024,0,6655833
190,1024,0,6657834
198,1024,0,6658826
212,1024,0,6660488
227,1024,0,6662482
233,1024,0,6663677
239,1024,0,6664879
247,1024,0,6666879
253,1024,0,6667870
264,1024,0,6669866
268,1024,0,6670863
276,1024,0,6672858
278,1024,0,6673870
284,1024,0,6675850
286,1024,0,6676846
292,1024,0,6678841
294,1024,0,6679838
296,1024,0,6681839
315,1024,0,6691984
317,1024,0,6691984
317,1024,0,6691984
317,1024,0,6691984
317,1024,0,6691984
317,1024,0,6691984
317,1024,0,6691984
323,1024,0,6702023
321,1024,0,6702023
323,1024,0,6702023
323,1024,0,6702023
325,1024,0,6702023
323,1024,0,6702023
323,1024,0,6702023
327,1024,-36,6712021
329,1024,0,6712021
333,1024,0,6712021
339,1024,0,6712021
342,1024,0,6712021
346,1024,0,6712021
358,1024,0,6721983
362,1024,0,6721983
372,1024,0,6721983
376,1024,0,6721983
380,1024,0,6721983
380,1024,0,6721983
385,1024,0,6721983
399,1024,0,6731984
403,1024,0,6731984
403,1024,0,6731984
407,1024,0,6731984
409,1024,0,6731984
413,1024,0,6731984
423,1024,0,6742021
423,1024,0,6742021
425,1024,0,6742021
425,1024,0,6742021
423,1024,0,6742021
423,1024,0,6742021
425,1024,0,6742021
417,1024,0,6752020
411,1024,0,6752020
405,1024,0,6752020
405,1024,0,6752020
403,1024,0,6752020
397,1024,0,6752020
393,1024,0,6752020
372,1024,0,6761984
366,1024,0,6762359
360,1024,0,6763364
354,1024,0,6764353
354,1024,0,6765350
348,1024,0,6766347
342,1024,0,6767344
333,1024,0,6767344
333,1024,0,6768341
327,1024,0,6769339
319,1024,0,6770337
313,1024,0,6771287
313,1024,0,6771388
296,1024,0,6773383
282,1024,0,6774379
276,1024,0,6776386
268,1024,0,6777372
253,1024,0,6779366
247,1024,0,6780235
235,1024,0,6781932
221,1024,0,6783926
215,1024,0,6784923
200,1024,0,6786918
194,1024,0,6787915
182,1024,0,6789912
176,1024,0,6790908
163,1024,0,6792902
163,1024,0,6793899
149,1024,0,6795893
149,1024,0,6796890
135,1024,0,6798885
135,1024,0,6799882
122,1024,0,6801892
122,1024,0,6802912
112,1024,0,6804906
112,1024,0,6805896
102,1024,0,6807864
102,1024,0,6808861
98,1024,0,6810854
98,1024,0,6811851
96,1024,0,6813846
94,1024,0,6814843
90,1024,0,6816837
88,1024,0,6817834
86,1024,0,6819829
83,1024,0,6820827
83,1024,0,6822860
83,1024,0,6823828
83,1024,0,6825851
83,1024,0,6826816
86,1024,0,6828806
86,1024,0,6830410
86,1024,0,6831407
86,1024,0,6833031
86,1024,0,6834583
86,1024,0,6835580
86,1024,0,6837575
88,1024,0,6838572
86,1024,0,6840568
86,1024,0,6841569
86,1024,0,6843559
83,1024,0,6844556
83,1024,0,6846551
81,1024,0,6847548
81,1024,0,6849543
81,1024,0,6850540
79,1024,0,6852534
79,1024,0,6853531
79,1024,0,6855528
79,1024,0,6856525
77,1024,0,6858523
77,1024,0,6859517
77,1024,0,6861516
77,1024,0,6862509
75,1024,0,6864503
75,1024,0,6865500
75,1024,0,6867495
75,1024,0,6869489
77,1024,0,6870487
77,1024,0,6872482
77,1024,0,6873480
77,1024,0,6875479
77,1024,0,6876475
77,1024,0,6878468
77,1024,0,6879466
77,1024,0,6881457
77,1024,0,6882454
79,1024,0,6884453
79,1024,0,6885447
79,1024,0,6887442
79,1024,0,6888439
81,1024,0,6889604
83,1024,0,6899642
83,1024,0,6899642
83,1024,0,6899642
83,1024,0,6899642
83,1024,0,6899642
83,1024,0,6899642
88,1024,0,6909605
88,1024,0,6909605
88,1024,0,6909605
90,1024,0,6909605
90,1024,0,6909605
90,1024,0,6909605
90,1024,0,6909605
92,1024,0,6919604
92,1024,0,6919604
92,1024,0,6919604
92,1024,0,6919604
94,1024,0,6919604
94,1024,0,6919604
94,1024,0,6919604
96,1024,0,6929609
96,1024,0,6929609
96,1024,0,6929609
96,1024,0,6929609
96,1024,0,6929609
96,1024,0,6929609
96,1024,0,6939605
96,1024,0,6939605
96,1024,0,6939605
96,1024,0,6939605
96,1024,0,6939605
96,1024,0,6939605
94,1024,0,6939605
96,968,0,6949606
94,948,0,6949606
96,925,0,6949606
96,925,0,6949606
96,905,0,6949606
94,884,0,6949606
94,884,0,6949606
92,768,0,6959639
92,749,0,6959639
90,733,0,6959639
90,716,0,6959639
90,700,0,6959639
90,700,0,6959639
83,606,0,6969637
83,591,0,6969637
81,563,0,6969637
81,563,0,6969637
79,548,0,6969637
77,534,0,6969637
77,522,0,6969637
71,473,0,6979605
71,460,0,6979605
69,448,0,6979605
67,438,0,6979605
67,438,0,6979605
65,425,0,6979605
65,415,0,6979605
61,364,0,6989605
59,356,0,6989605
59,346,0,6989605
57,335,0,6989605
57,327,0,6989605
55,317,0,6989605
53,274,0,6999610
53,266,0,6999610
53,258,0,6999610
53,251,0,6999610
53,251,0,6999610
53,243,0,6999610
55,237,0,6999610
55,200,0,7009605
57,192,0,7009605
59,180,0,7009605
61,174,0,7009605
63,167,0,7009605
65,161,0,7009605
67,157,0,7009605
75,141,0,7019604
75,141,0,7019604
77,135,0,7019604
81,131,0,7019604
86,124,0,7019604
90,118,0,7019604
131,92,0,7029605
143,88,0,7029605
161,83,0,7029605
184,79,0,7029605
184,79,0,7029605
212,75,0,7029605
245,71,0,7029605
495,57,0,7039641
565,55,0,7039641
638,51,13,7039641
720,49,34,7039641
811,47,63,7039641
903,45,102,7039641
1003,43,102,7039641
1024,36,299,7049605
1024,34,349,7049605
1024,30,399,7049605
1024,30,449,7049605
1024,28,499,7049605
1024,28,499,7049605
1024,20,799,7059636
1024,18,899,7059636
1024,18,899,7059636
1024,16,949,7059636
1024,16,999,7059636
1024,16,1049,7059636
1024,16,1049,7059636
1024,12,1349,7069607
1024,10,1399,7069607
1024,10,1399,7069607
1024,10,1449,7069607
1024,10,1499,7069607
1024,10,1549,7069607
1024,8,1599,7069607
1024,6,1799,7079605
1024,6,1849,7079605
1024,6,1899,7079605
1024,6,1949,7079605
1024,6,1949,7079605
1024,6,1999,7079605
1024,4,2299,7089605
1024,4,2399,7089605
1024,2,2449,7089605
1024,2,2499,7089605
1024,2,2549,7089605
1024,2,2599,7089605
1024,2,2599,7089605
1024,2,2799,7099604
1024,2,2849,7100863
1024,2,2899,7101861
1024,2,2949,7102857
1024,2,2999,7102857
1024,2,2999,7103853
1024,2,3049,7104852
1024,0,3099,7105849
1024,0,3149,7105849
1024,0,3199,7107847
1024,0,3249,7108844
1024,0,3299,7108844
1024,0,3349,7109839
1024,0,3399,7110868
1024,0,3449,7111858
1024,0,3499,7113829
1024,0,3549,7114825
1024,0,3649,7116819
1024,0,3699,7117829
1024,0,3799,7119811
1024,0,3849,7120809
1024,0,3949,7122806
1024,0,3999,7123805
1024,0,4099,7125799
1024,0,4149,7126794
1024,0,4249,7128788
1024,0,4299,7129785
1024,0,4399,7131779
1024,0,4449,7132777
1024,0,4549,7134770
1024,0,4599,7135768
1024,0,4699,7137763
1024,0,4749,7138765
1024,0,4849,7140762
1024,0,4899,7141754
1024,0,4999,7143747
1024,0,5049,7144745
1024,0,5149,7146739
1024,0,5199,7147737
1024,0,5299,7149731
1024,0,5349,7150728
1024,0,5449,7152723
1024,0,5499,7153721
1024,0,5599,7155716
1024,0,5649,7156712
1024,0,5749,7158713
1024,0,5799,7159704
1024,0,5899,7161699
1024,0,5949,7162715
1024,0,6049,7164692
1024,0,6099,7165689
1024,0,6199,7167684
1024,0,6249,7168682
1024,0,6349,7170676
1024,0,6399,7171673
1024,0,6499,7173638
1024,0,6549,7174638
1024,0,6599,7176630
1024,0,6649,7177627
1024,0,6749,7179621
1024,0,6799,7180619
1024,0,7449,7191790
1024,0,7549,7191790
1024,0,7599,7191790
1024,0,7599,7191790
1024,0,7649,7191790
1024,0,7699,7191790
1024,0,7749,7191790
1024,0,7899,7201752
1024,0,7949,7201752
1024,0,7999,7201752
1024,0,8049,7201752
1024,0,8099,7201752
1024,0,8149,7201752
1024,0,8199,7201752
1024,0,8399,7211752
1024,0,8449,7211752
1024,0,8499,7211752
1024,0,8549,7211752
1024,0,8549,7211752
1024,0,8599,7211752
1024,0,8899,7221785
1024,0,8949,7221785
1024,0,8999,7221785
1024,0,9099,7221785
1024,0,9099,7221785
1024,0,9149,7221785
1024,0,9199,7221785
1024,0,9399,7231752
1024,0,9399,7231752
1024,0,9449,7231752
1024,0,9499,7231752
1024,0,9549,7231752
1024,0,9599,7231752
1024,0,9649,7231752
1024,0,9899,7241757
1024,0,9999,7241757
1024,0,10049,7241757
1024,0,10049,7241757
1024,0,10099,7241757
1024,0,10149,7241757
1024,0,10399,7251792
1024,0,10449,7251792
1024,0,10499,7251792
1024,0,10549,7251792
1024,0,10599,7251792
1024,0,10649,7251792
1024,0,10699,7251792
1024,0,10899,7261753
1024,0,10949,7262970
1024,0,10999,7263983
1024,0,10999,7263983
1024,0,11049,7264976
1024,0,11099,7265963
1024,0,11149,7266962
1024,0,11149,7266962
1024,0,11199,7268508
1024,0,11249,7268508
1024,0,11249,7269427
1024,0,11299,7270488
1024,0,11349,7270720
1024,0,11399,7272717
1024,0,11449,7273714
1024,0,11549,7275709
1024,0,11599,7276706
1024,0,11699,7278700
1024,0,11749,7279505
1024,0,11849,7281162
1024,0,11949,7283156
1024,0,11999,7284154
1024,0,12099,7286148
1024,0,12149,7287158
1024,0,12199,7288564
1024,0,12299,7290559
1024,0,12399,7292274
1024,0,12449,7293272
1024,0,12549,7295298
1024,0,12599,7296961
1024,0,12649,7297958
1024,0,12749,7299953
1024,0,12799,7300951
1024,0,12899,7302945
1024,0,12949,7303942
1024,0,13049,7305937
1024,0,13099,7306935
1024,0,13199,7308929
1024,0,13249,7309623
1024,0,13349,7311900
1024,0,13399,7312866
1024,0,13499,7314860
1024,0,13549,7315858
1024,0,13649,7317883
1024,0,13699,7318850
1024,0,13799,7320845
1024,0,13849,7321842
1024,0,13949,7323873
1024,0,13999,7324872
1024,0,14099,7326864
1024,0,14149,7327679
1024,0,14249,7329329
1013,0,14348,7331324
991,0,14348,7332094
944,0,14439,7333787
901,0,14522,7335782
880,0,14560,7336778
839,0,14631,7338773
821,0,14663,7339780
782,0,14722,7341766
763,0,14774,7343399
729,0,14797,7344970
710,0,14819,7345999
677,0,14858,7347973
663,0,14875,7348965
632,0,14904,7350957
616,0,14917,7351954
587,0,14937,7353949
573,0,14945,7354946
544,0,14958,7356956
532,0,14962,7357939
505,0,14967,7359934
495,0,14967,7360931
473,0,14967,7362925
462,0,14967,7363922
442,0,14967,7365916
432,0,14967,7366914
411,0,14967,7368909
403,0,14967,7369905
385,0,14967,7371903
378,0,14967,7372900
364,0,14967,7374893
360,0,14967,7375934
356,0,14967,7377915
356,0,14967,7378935
362,0,14967,7380876
362,0,14967,7381874
380,0,14967,7383905
389,0,14967,7384905
409,0,14967,7386860
421,0,14967,7387888
446,0,14967,7389883
618,0,15007,7400111
636,0,15020,7400111
659,0,15035,7400111
679,0,15052,7400111
700,0,15052,7400111
700,0,15071,7400111
722,0,15092,7400111
829,0,15228,7410080
847,0,15261,7410080
868,0,15296,7410080
888,0,15333,7410080
909,0,15333,7410080
909,0,15372,7410080
929,0,15413,7410080
1024,0,15596,7420078
1024,0,15696,7420078
1024,0,15746,7420078
1024,0,15746,7420078
1024,0,15796,7420078
1024,0,15846,7420078
1024,0,16000,7430078
1024,2,16000,7430078
1024,2,16000,7430078
1024,2,16000,7430078
1024,2,16000,7430078
1024,2,16000,7430078
1024,2,16000,7430078
1024,4,16000,7440078
1024,6,16000,7440078
1024,4,16000,7440078
1024,4,16000,7440078
1024,4,16000,7440078
1024,4,16000,7440078
1024,4,16000,7440078
1024,4,16000,7450078
1024,4,16000,7450078
1024,4,16000,7450078
1024,4,16000,7450078
1024,4,16000,7450078
1024,4,16000,7450078
1024,4,16000,7460080
1024,6,16000,7460080
1024,6,16000,7460080
1024,6,16000,7460080
1024,6,16000,7460080
1024,6,16000,7460080
1024,8,16000,7460080
1024,10,16000,7470079
1024,12,16000,7470079
1024,12,16000,7470079
1024,12,16000,7470079
1024,12,16000,7470079
1024,12,16000,7470079
1024,12,16000,7470079
1024,12,16000,7480078
1024,12,16000,7480078
1024,12,16000,7480078
1024,14,16000,7480078
1024,14,16000,7480078
1024,16,16000,7480078
1024,20,16000,7490111
1024,20,16000,7490111
1024,20,16000,7490111
1024,22,16000,7490111
1024,22,16000,7490111
1024,22,16000,7490111
1024,24,16000,7490111
1024,24,16000,7500115
1024,26,16000,7500115
1024,26,16000,7500115
1024,26,16000,7500115
1024,28,16000,7500115
1024,28,16000,7500115
1024,30,16000,7500115
1024,32,16000,7510098
1009,32,16000,7510098
1001,32,16000,7510098
991,32,16000,7510098
991,32,16000,7510098
983,32,16000,7510098
940,34,16000,7520077
933,34,16000,7520077
917,34,16000,7520077
907,36,16000,7520077
901,36,16000,7520077
892,36,16000,7520077
884,34,16000,7520077
860,38,16000,7530079
845,36,16000,7530079
845,36,16000,7530079
829,36,16000,7530079
829,36,16000,7530079
823,36,16000,7530079
817,36,16000,7530079
786,36,16000,7540123
780,36,16000,7540123
772,36,16000,7540123
757,36,16000,7540123
751,36,16000,7540123
751,36,16000,7540123
718,34,16000,7550078
712,34,16000,7550078
706,34,16000,7550078
700,32,16000,7550078
694,34,16000,7550078
694,34,16000,7550078
688,34,16000,7550078
657,34,16000,7560114
653,34,16000,7560114
647,36,16000,7560114
643,36,16000,7560114
636,36,16000,7560114
626,38,16000,7560114
626,38,16000,7560114
606,43,16000,7570079
598,43,16000,7570079
591,43,16000,7570079
587,45,16000,7570079
581,45,16000,7570079
577,45,16000,7570079
561,45,16000,7580078
552,43,16000,7580078
552,43,16000,7580078
550,43,16000,7580078
546,43,16000,7580078
546,43,16000,7580078
542,43,16000,7580078
524,40,16000,7590114
520,40,16000,7590114
514,40,16000,7590114
512,40,16000,7590114
507,40,16000,7590114
505,38,16000,7590114
505,38,16000,7590114
493,36,16000,7600078
489,34,16000,7601262
487,34,16000,7602260
485,34,16000,7603257
481,34,16000,7603257
481,34,16000,7604253
479,34,16000,7605251
477,32,16000,7605251
475,32,16000,7606248
471,32,16000,7607262
468,32,16000,7608247
466,30,16000,7609253
466,30,16000,7610241
462,30,16000,7611237
458,28,16000,7613230
456,26,16000,7614227
452,26,16000,7616221
450,24,16000,7617219
446,24,16000,7619252
444,22,16000,7620212
440,22,16000,7622242
438,22,16000,7623206
434,22,16000,7625212
430,20,16000,7626207
428,20,16000,7628191
428,18,16000,7629188
423,18,16000,7631183
423,18,16000,7632180
419,18,16000,7634175
417,16,16000,7635172
415,16,16000,7637166
413,16,16000,7638164
411,14,16000,7640169
409,14,16000,7641178
409,14,16000,7643152
407,12,16000,7644148
405,12,16000,7646142
403,10,16000,7647139
401,10,16000,7649133
399,8,16000,7650132
397,8,16000,7652162
395,8,16000,7653160
391,6,16000,7655148
391,6,16000,7656115
389,6,16000,7658118
387,6,16000,7659112
385,4,16000,7661110
382,4,16000,7662099
380,4,16000,7664131
378,4,16000,7665145
376,4,16000,7667116
376,2,16000,7668083
374,2,16000,7670077
372,2,16000,7671905
370,2,16000,7672903
368,2,16000,7674561
368,2,16000,7675546
364,2,16000,7677548
364,2,16000,7678536
360,2,0,7680532
358,0,0,7681529
356,0,0,7683523
354,0,0,7684526
352,0,0,7686515
350,0,0,7687512
348,0,0,7689506
346,0,0,7690503
342,0,0,7692500
339,0,0,7694493
337,0,0,7695491
333,0,0,7697484
331,0,0,7698535
327,0,0,7699772
325,0,0,7701733
323,0,0,7702743
319,0,0,7704725
292,0,0,7715186
290,0,0,7715186
284,0,0,7715186
282,0,0,7715186
282,0,0,7715186
278,0,0,7715186
278,0,0,7715186
270,0,0,7725148
266,0,0,7725148
262,0,0,7725148
260,0,0,7725148
260,0,0,7725148
258,0,0,7725148
258,0,0,7725148
245,0,0,7735146
241,0,0,7735146
239,0,0,7735146
235,0,0,7735146
235,0,0,7735146
233,0,0,7735146
219,0,0,7745149
217,0,0,7745149
215,0,0,7745149
210,0,0,7745149
210,0,0,7745149
208,0,0,7745149
206,0,0,7745149
194,0,0,7755147
192,0,0,7755147
190,0,0,7755147
188,0,0,7755147
184,0,0,7755147
184,0,0,7755147
182,0,0,7755147
172,0,0,7765146
169,0,0,7766412
167,0,0,7767396
165,0,0,7767396
163,0,0,7768396
163,0,0,7769392
161,0,0,7770389
159,0,0,7771387
157,0,0,7772383
157,0,0,7772383
155,0,0,7773875
153,0,0,7773971
151,0,0,7774976
151,0,0,7776978
147,0,0,7777974
143,0,0,7779968
141,0,0,7780966
139,0,0,7782961
137,0,0,7783647
133,0,0,7785925
131,0,0,7786882
126,0,0,7788876
126,0,0,7789873
122,0,0,7791869
120,0,0,7792883
118,0,0,7794861
118,0,0,7795895
114,0,0,7797852
114,0,0,7798850
110,0,0,7800844
110,0,0,7801841
108,0,0,7803840
106,0,0,7804835
106,0,0,7806828
104,0,0,7807828
102,0,0,7809831
100,0,0,7810818
98,0,0,7812812
96,0,0,7813809
96,0,0,7815805
94,0,0,7816802
94,0,0,7818796
92,0,0,7819794
90,0,0,7821788
90,0,0,7822785
88,0,0,7824782
88,0,0,7825784
86,0,0,7827774
86,0,0,7828770
83,0,0,7830779
83,0,0,7831772
81,0,0,7833757
79,0,0,7834754
79,0,0,7836749
77,0,0,7837746
77,0,0,7839741
75,0,0,7840738
73,0,0,7842735
73,0,0,7843733
71,0,0,7845726
71,0,0,7846722
71,0,0,7848716
69,0,0,7849715
67,0,0,7851708
67,0,0,7852706
65,0,0,7854700
65,0,0,7855697
63,0,0,7857692
61,0,0,7858705
61,0,0,7860686
61,0,0,7861685
61,0,0,7863677
59,0,0,7864673
57,0,0,7866678
57,0,0,7867665
57,0,0,7869669
57,0,0,7870661
55,0,0,7872689
55,0,0,7873650
53,0,0,7875646
53,0,0,7876647
51,0,0,7878636
51,0,0,7879634
49,0,0,7881628
49,0,0,7882626
49,0,0,7884621
49,0,0,7885618
47,0,0,7887612
47,0,0,7888610
40,0,0,7899868
40,0,0,7899868
40,0,0,7899868
40,0,0,7899868
38,0,0,7899868
38,0,0,7899868
38,0,0,7899868
36,0,0,7909868
34,0,0,7909868
34,0,0,7909868
34,0,0,7909868
34,0,0,7909868
34,0,0,7909868
34,0,0,7909868
32,0,0,7919866
32,0,0,7919866
30,0,0,7919866
30,0,0,7919866
30,0,0,7919866
30,0,0,7919866
28,0,0,7929867
28,0,0,7929867
26,0,-36,7929867
26,0,-36,7929867
26,0,0,7929867
26,0,0,7929867
26,0,0,7929867
26,0,0,7939903
26,0,0,7939903
24,0,0,7939903
24,0,0,7939903
24,0,0,7939903
24,0,0,7939903
24,0,0,7939903
24,0,0,7949867
26,0,0,7949867
24,0,0,7949867
24,0,0,7949867
24,0,0,7949867
26,0,0,7949867
26,0,0,7959900
26,0,0,7959900
26,0,0,7959900
26,0,0,7959900
26,0,0,7959900
26,0,0,7959900
26,0,0,7959900
26,0,0,7969867
26,0,0,7969867
26,0,0,7969867
24,0,0,7969867
26,0,0,7969867
24,0,0,7969867
24,0,0,7969867
26,0,0,7979868
26,0,0,7979868
26,0,0,7979868
26,0,0,7979868
26,0,0,7979868
26,0,0,7979868
26,0,0,7989900
26,0,0,7989900
26,0,0,7989900
26,0,0,7989900
26,0,0,7989900
26,0,0,7989900
26,0,0,7989900
24,0,0,7999868
24,0,0,7999868
24,0,0,7999868
24,0,0,7999868
24,0,0,7999868
24,0,0,7999868
24,0,0,7999868
22,0,0,8009906
24,0,0,8009906
22,0,0,8009906
22,0,0,8009906
22,0,0,8009906
22,0,0,8009906
24,0,0,8019868
22,0,0,8019868
22,0,0,8019868
22,0,0,8019868
24,0,0,8019868
22,0,0,8019868
24,0,0,8019868
22,0,0,8029867
20,0,0,8029867
20,0,0,8029867
20,0,0,8029867
20,0,0,8029867
20,0,0,8029867
20,0,0,8029867
18,0,0,8039868
18,0,0,8039868
18,0,0,8039868
18,0,0,8039868
16,0,0,8039868
16,0,0,8039868
16,0,0,8049868
16,0,0,8049868
14,0,0,8049868
14,0,0,8049868
14,0,0,8049868
14,0,0,8049868
14,0,0,8049868
12,0,0,8059870
10,0,0,8059870
10,0,0,8059870
10,0,0,8059870
10,0,0,8059870
10,0,0,8059870
10,0,0,8059870
10,0,0,8069867
8,0,0,8069867
8,0,0,8069867
8,0,0,8069867
8,0,0,8069867
8,0,0,8069867
8,0,0,8079868
8,0,0,8079868
8,0,0,8079868
6,0,0,8079868
8,0,0,8079868
8,0,0,8079868
8,0,0,8079868
6,0,0,8089901
6,0,0,8089901
6,0,0,8089901
6,0,0,8089901
6,0,0,8089901
6,0,0,8089901
6,0,0,8089901
6,0,0,8099868
6,0,0,8101143
6,0,0,8102140
6,0,0,8103136
6,0,0,8103136
6,0,0,8104133
6,0,0,8105130
6,0,0,8106128
6,0,0,8107135
6,0,0,8108126
6,0,0,8109124
6,0,0,8110121
6,0,0,8111115
6,0,0,8111115
8,0,0,8112112
8,0,0,8114106
8,0,0,8115113
8,0,0,8117097
8,0,0,8118096
8,0,0,8119767
10,0,0,8121761
10,0,0,8122759
10,0,0,8124754
10,0,0,8125755
10,0,0,8127747
10,0,0,8128743
10,0,0,8130738
10,0,0,8131735
10,0,0,8133762
10,0,0,8134760
10,0,0,8136760
12,0,0,8137775
12,0,0,8139749
12,0,0,8140744
12,0,0,8142973
12,0,0,8143949
12,0,0,8145943
12,0,0,8146939
14,0,0,8148934
12,0,0,8149932
14,0,0,8151926
12,0,0,8152924
14,0,0,8154918
14,0,0,8155916
14,0,0,8157916
14,0,0,8158909
14,0,0,8160903
14,0,0,8161900
14,0,0,8163894
14,0,0,8164891
14,0,0,8166886
14,0,0,8167884
14,0,0,8169879
14,0,0,8170876
14,0,0,8172871
14,0,0,8173577
14,0,0,8175806
14,0,0,8176802
14,0,0,8178793
12,0,0,8179791
12,0,0,8181784
10,0,0,8192063
10,0,0,8192063
10,0,0,8192063
10,0,0,8192063
10,0,0,8192063
10,0,0,8192063
10,0,0,8192063
10,0,0,8202053
12,0,0,8202053
10,0,0,8202053
10,0,0,8202053
12,0,0,8202053
12,0,0,8202053
10,0,0,8202053
10,0,0,8212091
10,0,0,8212091
12,0,0,8212091
12,0,0,8212091
12,0,0,8212091
12,0,0,8212091
14,0,0,8222085
14,0,0,8222085
14,0,0,8222085
14,0,0,8222085
14,0,0,8222085
14,0,0,8222085
14,0,0,8222085
16,0,0,8232053
16,0,0,8232053
16,0,0,8232053
16,0,0,8232053
16,0,0,8232053
16,0,0,8232053
16,0,0,8232053
18,0,0,8242061
16,0,0,8242061
16,0,0,8242061
16,0,0,8242061
16,0,0,8242061
16,0,0,8242061
18,0,0,8252053
18,0,0,8252053
18,0,0,8252053
18,0,0,8252053
18,0,0,8252053
18,0,0,8252053
18,0,0,8252053
20,0,0,8262091
20,0,0,8262419
20,0,0,8263419
20,0,0,8265426
20,0,0,8266416
20,0,0,8267406
20,0,0,8268404
20,0,0,8268404
20,0,0,8270398
20,0,0,8270866
18,0,0,8271866
18,0,0,8272867
18,0,0,8272867
18,0,0,8273860
20,0,0,8275865
20,0,0,8276852
20,0,0,8277865
20,0,0,8278848
20,0,0,8280842
20,0,0,8281869
20,0,0,8283866
20,0,0,8284862
20,0,0,8286871
20,0,0,8287854
22,0,0,8289866
22,0,0,8290848
20,0,0,8292844
20,0,0,8293840
20,0,0,8295833
20,0,0,8296831
20,0,0,8298826
20,0,0,8299822
20,0,0,8301817
20,0,0,8302820
18,0,0,8304810
18,0,0,8305807
18,0,0,8307801
18,0,0,8308815
18,0,0,8310794
18,0,0,8311801
18,0,0,8313785
16,0,0,8314783
16,0,0,8316787
16,0,0,8317775
16,0,0,8319770
16,0,0,8320767
16,0,0,8322762
16,0,0,8323855
18,0,0,8325856
18,0,0,8326850
18,0,0,8328844
18,0,0,8329841
18,0,0,8331837
18,0,0,8332833
18,0,0,8334828
18,0,0,8335825
18,0,0,8337821
18,0,0,8338818
20,0,0,8340827
20,0,0,8341815
20,0,0,8343810
20,0,0,8344802
20,0,0,8346797
20,0,0,8347794
20,0,0,8349788
20,0,0,8350784
20,0,0,8352782
20,0,0,8353778
20,0,0,8355773
20,0,0,8356769
20,0,0,8358768
20,0,0,8359767
20,0,0,8361756
20,0,0,8362753
20,0,0,8364748
20,0,0,8365755
20,0,0,8367740
18,0,0,8368738
18,0,0,8370732
18,0,0,8371731
16,0,0,8373727
16,0,0,8374722
16,0,0,8376718
14,0,0,8377714
14,0,0,8379708
14,0,0,8380708
14,0,0,8382699
14,0,0,8383697
16,0,0,8385728
16,0,0,8386727
14,0,0,8388716
14,0,0,8389711
14,0,0,8399905
14,0,0,8399905
16,0,0,8399905
16,0,0,8399905
16,0,0,8399905
16,0,0,8399905
16,0,0,8409905
16,0,0,8409905
16,0,0,8409905
16,0,0,8409905
16,0,0,8409905
16,0,0,8409905
18,0,0,8409905
16,0,0,8419904
16,0,0,8419904
16,0,0,8419904
18,0,0,8419904
18,0,0,8419904
18,0,0,8419904
18,0,0,8419904
20,0,0,8429905
20,0,0,8429905
20,0,0,8429905
20,0,0,8429905
20,0,0,8429905
20,0,0,8429905
20,0,0,8439904
22,0,0,8439904
22,0,0,8439904
22,0,0,8439904
24,0,0,8439904
24,0,0,8439904
22,0,0,8439904
22,0,0,8449904
22,0,0,8449904
24,0,0,8449904
24,0,0,8449904
24,0,0,8449904
24,0,0,8449904
24,0,0,8449904
22,0,0,8459948
22,0,0,8459948
22,0,0,8459948
22,0,0,8459948
22,0,0,8459948
22,0,0,8459948
22,0,0,8469939
22,0,0,8469939
22,0,0,8469939
22,0,0,8469939
22,0,0,8469939
22,0,0,8469939
22,0,0,8469939
22,0,0,8479904
22,0,0,8479904
22,0,0,8479904
22,0,0,8479904
22,0,0,8479904
22,0,0,8479904
22,0,0,8479904
22,0,0,8489937
22,0,0,8489937
22,0,0,8489937
20,0,0,8489937
20,0,0,8489937
20,0,0,8489937
22,0,0,8499940
22,0,0,8499940
22,0,0,8499940
22,0,0,8499940
22,0,0,8499940
22,0,0,8499940
22,0,0,8499940
22,0,0,8509939
22,0,0,8509939
22,0,0,8509939
22,0,0,8509939
22,0,0,8509939
24,0,0,8509939
22,0,0,8509939
22,0,0,8519904
22,0,0,8519904
22,0,0,8519904
22,0,0,8519904
22,0,0,8519904
22,0,0,8519904
20,0,0,8529905
20,0,0,8529905
20,0,0,8529905
20,0,0,8529905
20,0,0,8529905
20,0,0,8529905
20,0,0,8529905
20,0,0,8539943
22,0,0,8539943
22,0,0,8539943
22,0,0,8539943
22,0,0,8539943
22,0,0,8539943
22,0,0,8539943
24,0,0,8549904
24,0,0,8549904
22,0,0,8549904
22,0,0,8549904
22,0,0,8549904
22,0,0,8549904
24,0,0,8559908
24,0,0,8559908
24,0,0,8559908
26,0,0,8559908
26,0,0,8559908
26,0,0,8559908
26,0,0,8559908
30,0,0,8569904
28,0,0,8569904
28,0,0,8569904
28,0,0,8569904
28,0,0,8569904
28,0,0,8569904
28,0,0,8569904
28,0,0,8579904
28,0,0,8579904
28,0,0,8579904
28,0,0,8579904
28,0,0,8579904
28,0,0,8579904
